Time,Channel A,Channel B
(ms),(V),(V)

-2.40011048,0.23059790,-0.14453570
-2.40001048,0.22901090,-0.14600050
-2.39991048,0.22730190,-0.14716020
-2.39981048,0.22687460,-0.14673300
-2.39971048,0.22516560,-0.14832000
-2.39961048,0.22394480,-0.14917450
-2.39951048,0.22254100,-0.14923550
-2.39941048,0.22156440,-0.14996800
-2.39931048,0.21985530,-0.15057830
-2.39921048,0.21900080,-0.15137180
-2.39911048,0.21753590,-0.15186010
-2.39901048,0.21619310,-0.15198220
-2.39891048,0.21448410,-0.15308090
-2.39881048,0.21369060,-0.15369120
-2.39871048,0.21240880,-0.15478990
-2.39861048,0.21021150,-0.15515610
-2.39851048,0.20923490,-0.15521710
-2.39841048,0.20770900,-0.15613270
-2.39831048,0.20691550,-0.15607170
-2.39821048,0.20471820,-0.15637680
-2.39811048,0.20337530,-0.15649890
-2.39801048,0.20203250,-0.15710930
-2.39791048,0.20099490,-0.15808590
-2.39781048,0.19977420,-0.15839110
-2.39771048,0.19794300,-0.15930660
-2.39761048,0.19690540,-0.15997800
-2.39751048,0.19525740,-0.16095460
-2.39741048,0.19360940,-0.16125980
-2.39731048,0.19244970,-0.16150400
-2.39721048,0.19092380,-0.16162600
-2.39711048,0.18927580,-0.16205330
-2.39701048,0.18842130,-0.16272470
-2.39691048,0.18732260,-0.16284680
-2.39681048,0.18512530,-0.16333510
-2.39671048,0.18390450,-0.16370130
-2.39661048,0.18219550,-0.16339610
-2.39651048,0.18103580,-0.16412850
-2.39641048,0.17828910,-0.16620380
-2.39631048,0.17780080,-0.16480000
-2.39621048,0.17590870,-0.16589860
-2.39611048,0.17438280,-0.16577660
-2.39601048,0.17346720,-0.16602070
-2.39591048,0.17188020,-0.16620380
-2.39581048,0.17065950,-0.16711940
-2.39571048,0.16925570,-0.16675310
-2.39561048,0.16711940,-0.16705830
-2.39551048,0.16565450,-0.16809590
-2.39541048,0.16461680,-0.16772970
-2.39531048,0.16315190,-0.16846220
-2.39521048,0.16187020,-0.16913360
-2.39511048,0.16040530,-0.16827910
-2.39501048,0.15881830,-0.16943880
-2.39491048,0.15790280,-0.16779080
-2.39481048,0.15527820,-0.16736350
-2.39471048,0.15436260,-0.16913360
-2.39461048,0.15338600,-0.16815700
-2.39451048,0.15112770,-0.16882840
-2.39441048,0.14966280,-0.16980500
-2.39431048,0.14825890,-0.16913360
-2.39421048,0.14679400,-0.16974400
-2.39411048,0.14496290,-0.17047640
-2.39401048,0.14416940,-0.17096470
-2.39391048,0.14191110,-0.17139190
-2.39381048,0.14044620,-0.17078160
-2.39371048,0.13904230,-0.17151400
-2.39361048,0.13745540,-0.17126990
-2.39351048,0.13568530,-0.17139190
-2.39341048,0.13428140,-0.17200230
-2.39331048,0.13238930,-0.17218540
-2.39321048,0.13074130,-0.17175820
-2.39311048,0.12958160,-0.17163610
-2.39301048,0.12793360,-0.17273480
-2.39291048,0.12640770,-0.17242960
-2.39281048,0.12482070,-0.17230750
-2.39271048,0.12347790,-0.17200230
-2.39261048,0.12231820,-0.17236850
-2.39251048,0.12024290,-0.17242960
-2.39241048,0.11883910,-0.17236850
-2.39231048,0.11713000,-0.17242960
-2.39221048,0.11603140,-0.17273480
-2.39211048,0.11450540,-0.17249060
-2.39201048,0.11249120,-0.17291790
-2.39191048,0.11175880,-0.17310100
-2.39181048,0.11004970,-0.17249060
-2.39171048,0.10882900,-0.17242960
-2.39161048,0.10724200,-0.17273480
-2.39151048,0.10473950,-0.17206340
-2.39141048,0.10254220,-0.17236850
-2.39131048,0.10242010,-0.17242960
-2.39121048,0.10052800,-0.17206340
-2.39111048,0.09900205,-0.17212440
-2.39101048,0.09723197,-0.17255160
-2.39091048,0.09625538,-0.17236850
-2.39081048,0.09393597,-0.17206340
-2.39071048,0.09259316,-0.17279580
-2.39061048,0.09106723,-0.17230750
-2.39051048,0.08972442,-0.17218540
-2.39041048,0.08819849,-0.17188020
-2.39031048,0.08673360,-0.17212440
-2.39021048,0.08478042,-0.17120880
-2.39011048,0.08331553,-0.17157510
-2.39001048,0.08203375,-0.17218540
-2.38991048,0.08062990,-0.17096470
-2.38981048,0.07904294,-0.17084260
-2.38971048,0.07727286,-0.17169710
-2.38961048,0.07525864,-0.17090370
-2.38951048,0.07440413,-0.17004910
-2.38941048,0.07342754,-0.17084260
-2.38931048,0.07092501,-0.17004910
-2.38921048,0.06982635,-0.17084260
-2.38911048,0.06811731,-0.17011020
-2.38901048,0.06695761,-0.16943880
-2.38891048,0.06585895,-0.16962190
-2.38881048,0.06408887,-0.16913360
-2.38871048,0.06280709,-0.16943880
-2.38861048,0.06060976,-0.16852320
-2.38851048,0.05920591,-0.16925570
-2.38841048,0.05822932,-0.16888940
-2.38831048,0.05597094,-0.16858420
-2.38821048,0.05487228,-0.16852320
-2.38811048,0.05304117,-0.16718040
-2.38801048,0.05163732,-0.16736350
-2.38791048,0.05053865,-0.16718040
-2.38781048,0.04907376,-0.16681420
-2.38771048,0.04730369,-0.16748560
-2.38761048,0.04583880,-0.16669210
-2.38751048,0.04510636,-0.16699730
-2.38741048,0.04266488,-0.16608170
-2.38731048,0.04077273,-0.16595970
-2.38721048,0.04034547,-0.16565450
-2.38711048,0.03906369,-0.16522720
-2.38701048,0.03747673,-0.16516620
-2.38691048,0.03631703,-0.16547140
-2.38681048,0.03418073,-0.16437270
-2.38671048,0.03253273,-0.16467790
-2.38661048,0.03112888,-0.16394540
-2.38651048,0.03057955,-0.16376230
-2.38641048,0.02887051,-0.16351820
-2.38631048,0.02703940,-0.16302990
-2.38621048,0.02581866,-0.16235850
-2.38611048,0.02423170,-0.16211430
-2.38601048,0.02166814,-0.16241950
-2.38591048,0.02111881,-0.16199230
-2.38581048,0.01959288,-0.16211430
-2.38571048,0.01825007,-0.16150400
-2.38561048,0.01641896,-0.16132080
-2.38551048,0.01477096,-0.16095460
-2.38541048,0.01391644,-0.16071050
-2.38531048,0.01220740,-0.16052740
-2.38521048,0.01055940,-0.15997800
-2.38511048,0.01001007,-0.15997800
-2.38501048,0.00793481,-0.15961180
-2.38491048,0.00683615,-0.15869620
-2.38481048,0.00537126,-0.15833000
-2.38471048,0.00415052,-0.15820800
-2.38461048,0.00262459,-0.15790280
-2.38451048,0.00122074,-0.15784170
-2.38441048,-0.00012207,-0.15753660
-2.38431048,-0.00170904,-0.15686510
-2.38421048,-0.00274667,-0.15741450
-2.38411048,-0.00390637,-0.15564440
-2.38401048,-0.00561541,-0.15558340
-2.38391048,-0.00695822,-0.15521710
-2.38381048,-0.00842311,-0.15503400
-2.38371048,-0.00976592,-0.15375230
-2.38361048,-0.01141392,-0.15405740
-2.38351048,-0.01251259,-0.15363020
-2.38341048,-0.01385540,-0.15363020
-2.38331048,-0.01483200,-0.15259250
-2.38321048,-0.01678518,-0.15198220
-2.38311048,-0.01812799,-0.15179910
-2.38301048,-0.01922666,-0.15228740
-2.38291048,-0.02002014,-0.15131080
-2.38281048,-0.02166814,-0.15112770
-2.38271048,-0.02331614,-0.14996800
-2.38261048,-0.02453688,-0.14996800
-2.38251048,-0.02551347,-0.14929660
-2.38241048,-0.02716147,-0.14893030
-2.38231048,-0.02850429,-0.14801480
-2.38221048,-0.02905362,-0.14758750
-2.38211048,-0.03045747,-0.14734340
-2.38201048,-0.03228858,-0.14618370
-2.38191048,-0.03338725,-0.14661090
-2.38181048,-0.03448591,-0.14545120
-2.38171048,-0.03540147,-0.14502400
-2.38161048,-0.03741569,-0.14423050
-2.38151048,-0.03820917,-0.14374220
-2.38141048,-0.03949095,-0.14307080
-2.38131048,-0.04052858,-0.14300970
-2.38121048,-0.04217658,-0.14276560
-2.38111048,-0.04303110,-0.14154480
-2.38101048,-0.04437391,-0.14069030
-2.38091048,-0.04589984,-0.14075140
-2.38081048,-0.04699850,-0.14038520
-2.38071048,-0.04791406,-0.13989680
-2.38061048,-0.04925688,-0.13934750
-2.38051048,-0.05053865,-0.13788260
-2.38041048,-0.05188147,-0.13727230
-2.38031048,-0.05322428,-0.13708910
-2.38021048,-0.05401776,-0.13623460
-2.38011048,-0.05511643,-0.13580740
-2.38001048,-0.05658132,-0.13519700
-2.37991048,-0.05743583,-0.13476970
-2.37981048,-0.05908383,-0.13415940
-2.37971048,-0.05981628,-0.13281660
-2.37961048,-0.06158635,-0.13238930
-2.37951048,-0.06250191,-0.13177890
-2.37941048,-0.06360057,-0.13141270
-2.37931048,-0.06445509,-0.13037510
-2.37921048,-0.06555375,-0.12970370
-2.37911048,-0.06677450,-0.12927640
-2.37901048,-0.06762902,-0.12848290
-2.37891048,-0.06927702,-0.12768950
-2.37881048,-0.06988738,-0.12701800
-2.37871048,-0.07110813,-0.12695700
-2.37861048,-0.07171850,-0.12549210
-2.37851048,-0.07251198,-0.12488170
-2.37841048,-0.07428205,-0.12396620
-2.37831048,-0.07489242,-0.12329480
-2.37821048,-0.07666250,-0.12280650
-2.37811048,-0.07678457,-0.12146370
-2.37801048,-0.07824945,-0.12103640
-2.37791048,-0.07879879,-0.12024290
-2.37781048,-0.08026368,-0.11932740
-2.37771048,-0.08111820,-0.11902220
-2.37761048,-0.08191168,-0.11792350
-2.37751048,-0.08337657,-0.11706900
-2.37741048,-0.08465835,-0.11694690
-2.37731048,-0.08502457,-0.11566520
-2.37721048,-0.08563494,-0.11566520
-2.37711048,-0.08709983,-0.11413920
-2.37701048,-0.08801538,-0.11358990
-2.37691048,-0.08856472,-0.11322370
-2.37681048,-0.08990753,-0.11102630
-2.37671048,-0.09094515,-0.11114840
-2.37661048,-0.09253212,-0.10998870
-2.37651048,-0.09289834,-0.10901210
-2.37641048,-0.09381390,-0.10834070
-2.37631048,-0.09527878,-0.10815760
-2.37621048,-0.09595019,-0.10687580
-2.37611048,-0.09637745,-0.10663170
-2.37601048,-0.09772027,-0.10571610
-2.37591048,-0.09869686,-0.10431230
-2.37581048,-0.09894101,-0.10345770
-2.37571048,-0.09961241,-0.10284740
-2.37561048,-0.10083320,-0.10150460
-2.37551048,-0.10126040,-0.10028380
-2.37541048,-0.10229800,-0.09979553
-2.37531048,-0.10345770,-0.09820856
-2.37521048,-0.10400710,-0.09747612
-2.37511048,-0.10443430,-0.09625538
-2.37501048,-0.10528890,-0.09625538
-2.37491048,-0.10626540,-0.09479049
-2.37481048,-0.10663170,-0.09332560
-2.37471048,-0.10773030,-0.09302042
-2.37461048,-0.10809660,-0.09228797
-2.37451048,-0.10937830,-0.09131138
-2.37441048,-0.10968350,-0.08996856
-2.37431048,-0.11084320,-0.08813746
-2.37421048,-0.11120950,-0.08777124
-2.37411048,-0.11169770,-0.08673360
-2.37401048,-0.11236910,-0.08569597
-2.37391048,-0.11377300,-0.08514664
-2.37381048,-0.11377300,-0.08301035
-2.37371048,-0.11474960,-0.08282723
-2.37361048,-0.11517690,-0.08166753
-2.37351048,-0.11536000,-0.08075198
-2.37341048,-0.11627550,-0.07940916
-2.37331048,-0.11719110,-0.07861568
-2.37321048,-0.11798460,-0.07715079
-2.37311048,-0.11828970,-0.07617420
-2.37301048,-0.11847290,-0.07538072
-2.37291048,-0.11926630,-0.07373272
-2.37281048,-0.12036500,-0.07293924
-2.37271048,-0.12091430,-0.07123020
-2.37261048,-0.12048710,-0.07074191
-2.37251048,-0.12164680,-0.06891079
-2.37241048,-0.12225720,-0.06775109
-2.37231048,-0.12201300,-0.06689657
-2.37221048,-0.12408830,-0.06677450
-2.37211048,-0.12280650,-0.06347850
-2.37201048,-0.12445450,-0.06414991
-2.37191048,-0.12512590,-0.06268502
-2.37181048,-0.12433240,-0.06189154
-2.37171048,-0.12530900,-0.06073184
-2.37161048,-0.12579730,-0.05963317
-2.37151048,-0.12689600,-0.05798517
-2.37141048,-0.12726220,-0.05713065
-2.37131048,-0.12738430,-0.05554369
-2.37121048,-0.12805570,-0.05468917
-2.37111048,-0.12848290,-0.05316325
-2.37101048,-0.12884910,-0.05175939
-2.37091048,-0.12976470,-0.05133213
-2.37081048,-0.12866600,-0.04797510
-2.37071048,-0.13110750,-0.05169836
-2.37061048,-0.13068030,-0.04882962
-2.37051048,-0.12994780,-0.04760887
-2.37041048,-0.13068030,-0.04736473
-2.37031048,-0.13104650,-0.04431288
-2.37021048,-0.13116860,-0.04303110
-2.37011048,-0.13141270,-0.04199347
-2.37001048,-0.13135170,-0.04095584
-2.36991048,-0.13184000,-0.03985717
-2.36981048,-0.13245030,-0.03778192
-2.36971048,-0.13226720,-0.03680532
-2.36961048,-0.13245030,-0.03564562
-2.36951048,-0.13281660,-0.03485214
-2.36941048,-0.13312170,-0.03375347
-2.36931048,-0.13318280,-0.03265481
-2.36921048,-0.13324380,-0.03094577
-2.36911048,-0.13385420,-0.03033540
-2.36901048,-0.13397630,-0.02887051
-2.36891048,-0.13422040,-0.02795495
-2.36881048,-0.13385420,-0.02673421
-2.36871048,-0.13458660,-0.02502518
-2.36861048,-0.13403730,-0.02368236
-2.36851048,-0.13483080,-0.02301096
-2.36841048,-0.13452560,-0.02154607
-2.36831048,-0.13531910,-0.02056948
-2.36821048,-0.13476970,-0.02014222
-2.36811048,-0.13501390,-0.01800592
-2.36801048,-0.13556320,-0.01709037
-2.36791048,-0.13574630,-0.01593066
-2.36781048,-0.13556320,-0.01501511
-2.36771048,-0.13501390,-0.01330607
-2.36761048,-0.13562430,-0.01239051
-2.36751048,-0.13580740,-0.01129185
-2.36741048,-0.13611260,-0.01001007
-2.36731048,-0.13641770,-0.00872829
-2.36721048,-0.13550220,-0.00756859
-2.36711048,-0.13507490,-0.00683615
-2.36701048,-0.13550220,-0.00579852
-2.36691048,-0.13538010,-0.00433363
-2.36681048,-0.13592940,-0.00329600
-2.36671048,-0.13556320,-0.00146489
-2.36661048,-0.13544110,-0.00030519
-2.36651048,-0.13531910,0.00115970
-2.36641048,-0.13544110,0.00164800
-2.36631048,-0.13531910,0.00268563
-2.36621048,-0.13470870,0.00402844
-2.36611048,-0.13483080,0.00463881
-2.36601048,-0.13476970,0.00592059
-2.36591048,-0.13495280,0.00689718
-2.36581048,-0.13403730,0.00781274
-2.36571048,-0.13428140,0.00891141
-2.36561048,-0.13428140,0.01049837
-2.36551048,-0.13324380,0.01165807
-2.36541048,-0.13391520,0.01281777
-2.36531048,-0.13342690,0.01385540
-2.36521048,-0.13336590,0.01501511
-2.36511048,-0.13318280,0.01648000
-2.36501048,-0.13324380,0.01739555
-2.36491048,-0.13281660,0.01849422
-2.36481048,-0.13245030,0.01953185
-2.36471048,-0.13214520,0.02032533
-2.36461048,-0.13190100,0.02111881
-2.36451048,-0.13135170,0.02288888
-2.36441048,-0.13110750,0.02380444
-2.36431048,-0.13080230,0.02514725
-2.36421048,-0.13098540,0.02581866
-2.36411048,-0.13006990,0.02667318
-2.36401048,-0.12958160,0.02783288
-2.36391048,-0.12964260,0.02880947
-2.36381048,-0.12952060,0.03003021
-2.36371048,-0.12945950,0.03173925
-2.36361048,-0.12848290,0.03228858
-2.36351048,-0.12823880,0.03369243
-2.36341048,-0.12781150,0.03491317
-2.36331048,-0.12683490,0.03582873
-2.36321048,-0.12677390,0.03650014
-2.36311048,-0.12561420,0.03772088
-2.36301048,-0.12500380,0.03912473
-2.36291048,-0.12500380,0.04016236
-2.36281048,-0.12445450,0.04065065
-2.36271048,-0.12366100,0.04217658
-2.36261048,-0.12341690,0.04272591
-2.36251048,-0.12280650,0.04461806
-2.36241048,-0.12262340,0.04547258
-2.36231048,-0.12164680,0.04651021
-2.36221048,-0.12189090,0.04803614
-2.36211048,-0.12079230,0.04858547
-2.36201048,-0.12012090,0.04907376
-2.36191048,-0.11932740,0.05108798
-2.36181048,-0.11896110,0.05151524
-2.36171048,-0.11767940,0.05310221
-2.36161048,-0.11737420,0.05365154
-2.36151048,-0.11682490,0.05456709
-2.36141048,-0.11615340,0.05627613
-2.36131048,-0.11529890,0.05700858
-2.36121048,-0.11517690,0.05761895
-2.36111048,-0.11438340,0.05908383
-2.36101048,-0.11401720,0.06103702
-2.36091048,-0.11352890,0.06085391
-2.36081048,-0.11212500,0.06250191
-2.36071048,-0.11181980,0.06317332
-2.36061048,-0.11078220,0.06463820
-2.36051048,-0.11047700,0.06579791
-2.36041048,-0.10974460,0.06677450
-2.36031048,-0.10913420,0.06799524
-2.36021048,-0.10797450,0.06866664
-2.36011048,-0.10754720,0.06946012
-2.36001048,-0.10644860,0.07068087
-2.35991048,-0.10534990,0.07245094
-2.35981048,-0.10412920,0.07257301
-2.35971048,-0.10443430,0.07391583
-2.35961048,-0.10339670,0.07586902
-2.35951048,-0.10254220,0.07666250
-2.35941048,-0.10217600,0.07733390
-2.35931048,-0.10119940,0.07861568
-2.35921048,-0.10083320,0.07885983
-2.35911048,-0.09930723,0.08020264
-2.35901048,-0.09936827,0.08117923
-2.35891048,-0.09814753,0.08239998
-2.35881048,-0.09692679,0.08331553
-2.35871048,-0.09619434,0.08471938
-2.35861048,-0.09576708,0.08545183
-2.35851048,-0.09460738,0.08648945
-2.35841048,-0.09302042,0.08771019
-2.35831048,-0.09234901,0.08789331
-2.35821048,-0.09222694,0.08905301
-2.35811048,-0.08948027,0.09039582
-2.35801048,-0.08972442,0.09186071
-2.35791048,-0.08862575,0.09247109
-2.35781048,-0.08819849,0.09302042
-2.35771048,-0.08661153,0.09411909
-2.35761048,-0.08575701,0.09479049
-2.35751048,-0.08459730,0.09601123
-2.35741048,-0.08362071,0.09717093
-2.35731048,-0.08301035,0.09845271
-2.35721048,-0.08178961,0.09955138
-2.35711048,-0.08142339,0.10046690
-2.35701048,-0.07995850,0.10144350
-2.35691048,-0.07928709,0.10180970
-2.35681048,-0.07757805,0.10345770
-2.35671048,-0.07666250,0.10370190
-2.35661048,-0.07556383,0.10498370
-2.35651048,-0.07464828,0.10565510
-2.35641048,-0.07397687,0.10675370
-2.35631048,-0.07245094,0.10766930
-2.35621048,-0.07116917,0.10797450
-2.35611048,-0.07007050,0.10895110
-2.35601048,-0.06939909,0.11011080
-2.35591048,-0.06848353,0.11114840
-2.35581048,-0.06714072,0.11114840
-2.35571048,-0.06622516,0.11249120
-2.35561048,-0.06494339,0.11285740
-2.35551048,-0.06384473,0.11371200
-2.35541048,-0.06262398,0.11487170
-2.35531048,-0.06097598,0.11621450
-2.35521048,-0.05987731,0.11664170
-2.35511048,-0.05945006,0.11719110
-2.35501048,-0.05786309,0.11786250
-2.35491048,-0.05725272,0.11877800
-2.35481048,-0.05572680,0.11975460
-2.35471048,-0.05371258,0.12018190
-2.35461048,-0.05304117,0.12121950
-2.35451048,-0.05188147,0.12201300
-2.35441048,-0.05072176,0.12207400
-2.35431048,-0.04974517,0.12305060
-2.35421048,-0.04809717,0.12402720
-2.35411048,-0.04687643,0.12524800
-2.35401048,-0.04553362,0.12573630
-2.35391048,-0.04437391,0.12616350
-2.35381048,-0.04321421,0.12701800
-2.35371048,-0.04193243,0.12768950
-2.35361048,-0.04058962,0.12854400
-2.35351048,-0.03997925,0.12878810
-2.35341048,-0.03753777,0.13019200
-2.35331048,-0.03643910,0.12982570
-2.35321048,-0.03527940,0.13080230
-2.35311048,-0.03369243,0.13220620
-2.35301048,-0.03277688,0.13226720
-2.35291048,-0.03180028,0.13281660
-2.35281048,-0.02960295,0.13361000
-2.35271048,-0.02862636,0.13415940
-2.35261048,-0.02795495,0.13422040
-2.35251048,-0.02606281,0.13562430
-2.35241048,-0.02465896,0.13592940
-2.35231048,-0.02386547,0.13653980
-2.35221048,-0.02233955,0.13660090
-2.35211048,-0.02032533,0.13757740
-2.35201048,-0.01940977,0.13830990
-2.35191048,-0.01770074,0.13898130
-2.35181048,-0.01660207,0.13916440
-2.35171048,-0.01574755,0.13965270
-2.35161048,-0.01452681,0.14136170
-2.35151048,-0.01239051,0.14075140
-2.35141048,-0.01141392,0.14123970
-2.35131048,-0.01007111,0.14221630
-2.35121048,-0.00830104,0.14227730
-2.35111048,-0.00695822,0.14270450
-2.35101048,-0.00531022,0.14300970
-2.35091048,-0.00402844,0.14441360
-2.35081048,-0.00286874,0.14423050
-2.35071048,-0.00073244,0.14569540
-2.35061048,0.00054933,0.14526810
-2.35051048,0.00054933,0.14600050
-2.35041048,0.00280770,0.14673300
-2.35031048,0.00421155,0.14697710
-2.35021048,0.00604267,0.14734340
-2.35011048,0.00726341,0.14758750
-2.35001048,0.00921659,0.14862510
-2.34991048,0.01062044,0.14911340
-2.34981048,0.01129185,0.14911340
-2.34971048,0.01312296,0.14911340
-2.34961048,0.01477096,0.15015110
-2.34951048,0.01538133,0.15021210
-2.34941048,0.01727348,0.15094450
-2.34931048,0.01867733,0.15112770
-2.34921048,0.02075259,0.15149390
-2.34911048,0.02197333,0.15149390
-2.34901048,0.02319407,0.15259250
-2.34891048,0.02520829,0.15216530
-2.34881048,0.02667318,0.15259250
-2.34871048,0.02795495,0.15295880
-2.34861048,0.02978607,0.15259250
-2.34851048,0.03100681,0.15338600
-2.34841048,0.03308206,0.15369120
-2.34831048,0.03430280,0.15430160
-2.34821048,0.03582873,0.15430160
-2.34811048,0.03759880,0.15515610
-2.34801048,0.03778192,0.15399640
-2.34791048,0.03918577,0.15405740
-2.34781048,0.04217658,0.15454570
-2.34771048,0.04370251,0.15582750
-2.34761048,0.04431288,0.15564440
-2.34751048,0.04651021,0.15662100
-2.34741048,0.04828028,0.15662100
-2.34731048,0.04937895,0.15686510
-2.34721048,0.05053865,0.15698720
-2.34711048,0.05279702,0.15674310
-2.34701048,0.05395672,0.15710930
-2.34691048,0.05609302,0.15735340
-2.34681048,0.05633717,0.15717030
-2.34671048,0.05810724,0.15796380
-2.34661048,0.05981628,0.15784170
-2.34651048,0.06091494,0.15759760
-2.34641048,0.06286813,0.15924560
-2.34631048,0.06439406,0.16168710
-2.34621048,0.06549272,0.15857420
-2.34611048,0.06744590,0.15973390
-2.34601048,0.06878872,0.16028320
-2.34591048,0.06952117,0.15973390
-2.34581048,0.07238990,0.16022220
-2.34571048,0.07367168,0.15991700
-2.34561048,0.07513657,0.15948970
-2.34551048,0.07660146,0.15936770
-2.34541048,0.07824945,0.15942870
-2.34531048,0.08026368,0.15991700
-2.34521048,0.08069094,0.15924560
-2.34511048,0.08276620,0.15973390
-2.34501048,0.08429212,0.16022220
-2.34491048,0.08587909,0.15936770
-2.34481048,0.08789331,0.15985590
-2.34471048,0.08917508,0.15985590
-2.34461048,0.09106723,0.15973390
-2.34451048,0.09222694,0.15985590
-2.34441048,0.09411909,0.15985590
-2.34431048,0.09540086,0.15967280
-2.34421048,0.09686575,0.15955080
-2.34411048,0.09894101,0.16010010
-2.34401048,0.10052800,0.15948970
-2.34391048,0.10211490,0.15967280
-2.34381048,0.10303050,0.15967280
-2.34371048,0.10492260,0.15912350
-2.34361048,0.10620440,0.15887940
-2.34351048,0.10791340,0.15875730
