Time,Channel A,Channel B
(ms),(V),(mV)

-2.40012491,-0.17169710,121.52470000
-2.40002491,-0.17053740,121.92140000
-2.39992491,-0.16949980,122.27240000
-2.39982491,-0.16846220,122.62340000
-2.39972491,-0.16736350,122.82170000
-2.39962491,-0.16589860,123.26430000
-2.39952491,-0.16449480,123.34050000
-2.39942491,-0.16296880,123.66100000
-2.39932491,-0.16272470,124.28660000
-2.39922491,-0.16089360,124.46970000
-2.39912491,-0.15900140,124.75970000
-2.39902491,-0.15881830,125.17170000
-2.39892491,-0.15759760,125.50740000
-2.39882491,-0.15649890,125.56840000
-2.39872491,-0.15533920,126.20930000
-2.39862491,-0.15369120,126.57550000
-2.39852491,-0.15228740,126.80440000
-2.39842491,-0.15179910,127.20110000
-2.39832491,-0.15063940,127.44530000
-2.39822491,-0.14862510,127.65890000
-2.39812491,-0.14770960,128.11670000
-2.39802491,-0.14709920,128.37610000
-2.39792491,-0.14563430,128.71180000
-2.39782491,-0.14355910,128.83390000
-2.39772491,-0.14276560,129.12380000
-2.39762491,-0.14142280,129.24590000
-2.39752491,-0.14020200,129.65790000
-2.39742491,-0.13904230,130.10040000
-2.39732491,-0.13776050,130.43610000
-2.39722491,-0.13696710,130.72600000
-2.39712491,-0.13519700,131.16850000
-2.39702491,-0.13440350,131.47370000
-2.39692491,-0.13263340,131.79420000
-2.39682491,-0.13153480,132.00780000
-2.39672491,-0.13074130,132.28250000
-2.39662491,-0.12939850,132.31300000
-2.39652491,-0.12744530,132.63340000
-2.39642491,-0.12683490,132.96910000
-2.39632491,-0.12530900,133.24380000
-2.39622491,-0.12421030,133.76260000
-2.39612491,-0.12268440,133.96100000
-2.39602491,-0.12170780,134.05260000
-2.39592491,-0.11999880,134.73920000
-2.39582491,-0.11871700,134.80020000
-2.39572491,-0.11749630,134.58660000
-2.39562491,-0.11633660,134.95280000
-2.39552491,-0.11487170,135.33430000
-2.39542491,-0.11358990,135.12070000
-2.39532491,-0.11194190,135.74630000
-2.39522491,-0.11151460,135.31910000
-2.39512491,-0.10931730,137.30280000
-2.39502491,-0.10785240,136.98230000
-2.39492491,-0.10657060,137.83680000
-2.39482491,-0.10596030,137.57740000
-2.39472491,-0.10467850,137.30280000
-2.39462491,-0.10345770,137.86740000
-2.39452491,-0.10223700,137.54690000
-2.39442491,-0.10101630,137.73000000
-2.39432491,-0.09942930,138.49300000
-2.39422491,-0.09833064,138.79820000
-2.39412491,-0.09729300,138.87450000
-2.39402491,-0.09607227,138.58450000
-2.39392491,-0.09479049,136.55510000
-2.39382491,-0.09265420,138.76770000
-2.39372491,-0.09143345,138.92020000
-2.39362491,-0.09063997,139.50010000
-2.39352491,-0.08862575,140.56830000
-2.39342491,-0.08777124,140.61400000
-2.39332491,-0.08624531,141.33120000
-2.39322491,-0.08459730,141.23970000
-2.39312491,-0.08288828,141.86530000
-2.39302491,-0.08166753,142.65880000
-2.39292491,-0.08069094,142.27730000
-2.39282491,-0.07904294,142.58250000
-2.39272491,-0.07770012,142.78080000
-2.39262491,-0.07745598,142.23150000
-2.39252491,-0.07525864,142.58250000
-2.39242491,-0.07354961,143.33020000
-2.39232491,-0.07245094,143.62010000
-2.39222491,-0.07098605,144.06260000
-2.39212491,-0.06952117,144.82560000
-2.39202491,-0.06878872,144.56620000
-2.39192491,-0.06769005,144.55090000
-2.39182491,-0.06561480,145.22230000
-2.39172491,-0.06451613,145.35960000
-2.39162491,-0.06317332,145.28340000
-2.39152491,-0.06128117,145.75640000
-2.39142491,-0.05957213,145.64960000
-2.39132491,-0.05859554,145.45120000
-2.39122491,-0.05682547,145.71060000
-2.39112491,-0.05590991,146.07680000
-2.39102491,-0.05548265,146.09210000
-2.39092491,-0.05371258,146.87030000
-2.39082491,-0.05175939,146.87030000
-2.39072491,-0.05053865,146.76350000
-2.39062491,-0.04956206,146.91610000
-2.39052491,-0.04797510,147.06870000
-2.39042491,-0.04675436,147.34340000
-2.39032491,-0.04492325,147.74010000
-2.39022491,-0.04333628,148.25890000
-2.39012491,-0.04162725,148.16730000
-2.39002491,-0.04040651,148.22840000
-2.38992491,-0.03881954,148.22840000
-2.38982491,-0.03820917,148.25890000
-2.38972491,-0.03643910,148.38100000
-2.38962491,-0.03503525,148.82350000
-2.38952491,-0.03357036,148.85400000
-2.38942491,-0.03204443,149.14390000
-2.38932491,-0.03076266,149.31180000
-2.38922491,-0.02868740,149.46440000
-2.38912491,-0.02710044,149.72380000
-2.38902491,-0.02649007,149.83060000
-2.38892491,-0.02490310,150.13580000
-2.38882491,-0.02325510,150.24260000
-2.38872491,-0.02215644,150.34940000
-2.38862491,-0.02050844,150.59360000
-2.38852491,-0.01928770,150.56300000
-2.38842491,-0.01757866,150.65460000
-2.38832491,-0.01690725,150.79190000
-2.38822491,-0.01513718,150.94450000
-2.38812491,-0.01373333,151.09710000
-2.38802491,-0.01220740,151.24970000
-2.38792491,-0.01068148,151.43280000
-2.38782491,-0.00946074,151.72280000
-2.38772491,-0.00750755,151.76850000
-2.38762491,-0.00616474,152.11950000
-2.38752491,-0.00537126,152.22630000
-2.38742491,-0.00335704,152.57730000
-2.38732491,-0.00274667,152.71460000
-2.38722491,-0.00067141,152.68410000
-2.38712491,0.00146489,152.92820000
-2.38702491,0.00268563,152.85190000
-2.38692491,0.00347911,152.85190000
-2.38682491,0.00482192,153.17240000
-2.38672491,0.00665304,153.21820000
-2.38662491,0.00805689,153.50810000
-2.38652491,0.00970489,153.52330000
-2.38642491,0.01159703,153.59970000
-2.38632491,0.01232948,153.72170000
-2.38622491,0.01397748,153.73700000
-2.38612491,0.01556444,153.76750000
-2.38602491,0.01666311,153.88960000
-2.38592491,0.01825007,154.01160000
-2.38582491,0.01947081,153.92010000
-2.38572491,0.02124088,153.96590000
-2.38562491,0.02252266,153.98110000
-2.38552491,0.02386547,153.99640000
-2.38542491,0.02539140,154.11850000
-2.38532491,0.02728355,154.22530000
-2.38522491,0.02801599,154.16420000
-2.38512491,0.02960295,154.31680000
-2.38502491,0.03039644,154.42360000
-2.38492491,0.03259377,154.25580000
-2.38482491,0.03411970,154.46940000
-2.38472491,0.03595080,154.72880000
-2.38462491,0.03729362,154.54570000
-2.38452491,0.03827021,154.54570000
-2.38442491,0.04016236,154.74410000
-2.38432491,0.04132206,154.42360000
-2.38422491,0.04266488,154.56100000
-2.38412491,0.04419080,154.82040000
-2.38402491,0.04583880,154.85090000
-2.38392491,0.04663228,154.82040000
-2.38382491,0.04895169,154.10320000
-2.38372491,0.05023347,154.11850000
-2.38362491,0.05102695,153.88960000
-2.38352491,0.05328532,154.33210000
-2.38342491,0.05475020,154.77460000
-2.38332491,0.05603198,154.82040000
-2.38322491,0.05682547,154.91190000
-2.38312491,0.05847346,154.83560000
-2.38302491,0.06042665,155.03400000
-2.38292491,0.06195258,154.91190000
-2.38282491,0.06366161,154.89670000
-2.38272491,0.06469924,154.97300000
-2.38262491,0.06646931,156.74310000
-2.38252491,0.06842250,156.27000000
-2.38242491,0.06915494,155.93430000
-2.38232491,0.07129124,155.67490000
-2.38222491,0.07226783,154.97300000
-2.38212491,0.07385479,155.33920000
-2.38202491,0.07580797,154.80510000
-2.38192491,0.07684561,155.18660000
-2.38182491,0.07831050,154.78990000
-2.38172491,0.08026368,154.85090000
-2.38162491,0.08142339,154.97300000
-2.38152491,0.08276620,155.27820000
-2.38142491,0.08423109,155.20190000
-2.38132491,0.08539079,154.91190000
-2.38122491,0.08703879,155.09510000
-2.38112491,0.08886990,154.92720000
-2.38102491,0.08948027,154.89670000
-2.38092491,0.09137242,155.26290000
-2.38082491,0.09259316,155.17140000
-2.38072491,0.09448531,155.01880000
-2.38062491,0.09607227,154.85090000
-2.38052491,0.09741508,154.85090000
-2.38042491,0.09900205,155.14080000
-2.38032491,0.10077210,155.38500000
-2.38022491,0.10168770,155.30870000
-2.38012491,0.10376290,155.20190000
-2.38002491,0.10522780,155.38500000
-2.37992491,0.10650960,155.21710000
-2.37982491,0.10779140,154.69830000
-2.37972491,0.11011080,154.46940000
-2.37962491,0.11053800,154.82040000
-2.37952491,0.11249120,154.56100000
-2.37942491,0.11413920,154.39310000
-2.37932491,0.11548200,154.51520000
-2.37922491,0.11713000,154.48470000
-2.37912491,0.11828970,154.62200000
-2.37902491,0.11957150,154.83560000
-2.37892491,0.12152470,154.72880000
-2.37882491,0.12244030,154.57620000
-2.37872491,0.12396620,154.46940000
-2.37862491,0.12506480,154.16420000
-2.37852491,0.12714010,153.84380000
-2.37842491,0.12854400,154.04220000
-2.37832491,0.13061920,154.16420000
-2.37822491,0.13129060,153.79800000
-2.37812491,0.13263340,153.87430000
-2.37802491,0.13415940,153.76750000
-2.37792491,0.13544110,153.44710000
-2.37782491,0.13715020,153.66070000
-2.37772491,0.13873710,153.88960000
-2.37762491,0.14026310,153.40130000
-2.37752491,0.14160590,154.02690000
-2.37742491,0.14300970,154.19480000
-2.37732491,0.14416940,153.40130000
-2.37722491,0.14569540,153.64540000
-2.37712491,0.14764850,154.28630000
-2.37702491,0.14850310,153.84380000
-2.37692491,0.14996800,153.52330000
-2.37682491,0.15100560,153.61490000
-2.37672491,0.15234840,152.89770000
-2.37662491,0.15405740,152.71460000
-2.37652491,0.15558340,152.97400000
-2.37642491,0.15710930,153.05030000
-2.37632491,0.15839110,153.05030000
-2.37622491,0.16040530,153.63020000
-2.37612491,0.16107670,153.17240000
-2.37602491,0.16248050,152.53150000
-2.37592491,0.16443370,152.85190000
-2.37582491,0.16663110,152.86720000
-2.37572491,0.16724140,152.31790000
-2.37562491,0.16846220,152.39420000
-2.37552491,0.17035430,152.13480000
-2.37542491,0.17145300,151.38710000
-2.37532491,0.17273480,151.26500000
-2.37522491,0.17456590,151.24970000
-2.37512491,0.17523730,151.31080000
-2.37502491,0.17749570,151.38710000
-2.37492491,0.17896050,151.44810000
-2.37482491,0.18091370,150.95980000
-2.37472491,0.18170720,150.62410000
-2.37462491,0.18298900,150.60880000
-2.37452491,0.18433180,150.37990000
-2.37442491,0.18543050,150.37990000
-2.37432491,0.18732260,150.33420000
-2.37422491,0.18787190,149.98320000
-2.37412491,0.19000820,149.60170000
-2.37402491,0.19141210,149.52540000
-2.37392491,0.19293800,149.41860000
-2.37382491,0.19397560,149.08290000
-2.37372491,0.19562370,149.18970000
-2.37362491,0.19678330,149.02190000
-2.37352491,0.19763790,148.60990000
-2.37342491,0.19953000,148.54880000
-2.37332491,0.20130010,148.12160000
-2.37322491,0.20258190,148.06050000
-2.37312491,0.20398570,148.04530000
-2.37302491,0.20532850,147.95370000
-2.37292491,0.20673240,147.83160000
-2.37282491,0.20825830,147.74010000
-2.37272491,0.20923490,147.55700000
-2.37262491,0.21118810,147.37390000
-2.37252491,0.21240880,146.44310000
-2.37242491,0.21460620,148.38100000
-2.37232491,0.21558280,146.76350000
-2.37222491,0.21680350,147.69430000
-2.37212491,0.21839040,146.96190000
-2.37202491,0.21875670,146.13790000
-2.37192491,0.22028260,146.47360000
-2.37182491,0.22223580,145.97000000
-2.37172491,0.22315130,146.00050000
-2.37162491,0.22467730,145.83270000
-2.37152491,0.22589800,145.84790000
-2.37142491,0.22809530,145.98530000
-2.37132491,0.22901090,145.57330000
-2.37122491,0.23010960,144.52040000
-2.37112491,0.23224590,145.51220000
-2.37102491,0.23322250,144.79510000
-2.37092491,0.23419900,145.05450000
-2.37082491,0.23664050,145.42070000
-2.37072491,0.23749500,145.14600000
-2.37062491,0.23841060,144.53560000
-2.37052491,0.24066900,144.88660000
-2.37042491,0.24146240,144.10840000
-2.37032491,0.24280530,143.83370000
-2.37022491,0.24414810,143.58960000
-2.37012491,0.24591820,143.60480000
-2.37002491,0.24732200,143.36070000
-2.36992491,0.24897000,142.93340000
-2.36982491,0.25012970,142.90290000
-2.36972491,0.25122840,142.68930000
-2.36962491,0.25257120,142.58250000
-2.36952491,0.25348680,142.47570000
-2.36942491,0.25556200,142.38410000
-2.36932491,0.25647760,142.09420000
-2.36922491,0.25769830,141.86530000
-2.36912491,0.25928530,141.52960000
-2.36902491,0.26081120,141.20910000
-2.36892491,0.26184880,141.10230000
-2.36882491,0.26343580,141.02600000
-2.36872491,0.26429030,140.82770000
-2.36862491,0.26545000,140.70560000
-2.36852491,0.26667070,140.64450000
-2.36842491,0.26856290,140.30880000
-2.36832491,0.26947840,140.14100000
-2.36822491,0.27069920,140.08000000
-2.36812491,0.27228610,139.94260000
-2.36802491,0.27381210,139.88160000
-2.36792491,0.27466660,139.40860000
-2.36782491,0.27576520,139.21020000
-2.36772491,0.27741320,139.08810000
-2.36762491,0.27814570,138.93550000
-2.36752491,0.28162480,138.93550000
-2.36742491,0.28107550,138.84390000
-2.36732491,0.28229620,138.64560000
-2.36722491,0.28351690,138.34040000
-2.36712491,0.28559220,137.98940000
-2.36702491,0.28681300,137.95890000
-2.36692491,0.28778960,137.59270000
-2.36682491,0.28852200,137.57740000
-2.36672491,0.28986480,137.22650000
-2.36662491,0.29181800,137.11970000
-2.36652491,0.29285560,136.98230000
-2.36642491,0.29419840,136.66190000
-2.36632491,0.29590750,136.63140000
-2.36622491,0.29706720,136.72290000
-2.36612491,0.29853210,136.37190000
-2.36602491,0.29987490,136.26510000
-2.36592491,0.30079040,136.03630000
-2.36582491,0.30213320,135.73110000
-2.36572491,0.30353710,135.57850000
-2.36562491,0.30439160,135.33430000
-2.36552491,0.30585650,135.22750000
-2.36542491,0.30762660,134.95280000
-2.36532491,0.30780970,134.55610000
-2.36522491,0.30994600,134.37300000
-2.36512491,0.31086150,133.93050000
-2.36502491,0.31189920,133.80840000
-2.36492491,0.31373030,133.65580000
-2.36482491,0.31440170,133.50320000
-2.36472491,0.31562240,133.28960000
-2.36462491,0.31678210,133.06070000
-2.36452491,0.31849120,132.77080000
-2.36442491,0.31989500,132.60290000
-2.36432491,0.32105470,132.40450000
-2.36422491,0.32245860,132.03830000
-2.36412491,0.32367930,131.77890000
-2.36402491,0.32459490,131.56530000
-2.36392491,0.32538830,130.78710000
-2.36382491,0.32673120,130.31400000
-2.36372491,0.32776880,130.14620000
-2.36362491,0.32941680,129.78000000
-2.36352491,0.33106480,129.27640000
-2.36342491,0.33173620,129.16960000
-2.36332491,0.33283490,128.94070000
-2.36322491,0.33442180,128.60500000
-2.36312491,0.33558150,128.52870000
-2.36302491,0.33661920,128.28450000
-2.36292491,0.33783990,127.72000000
-2.36282491,0.33887750,127.39950000
-2.36272491,0.34003720,126.80440000
-2.36262491,0.34217350,126.33140000
-2.36252491,0.34308910,126.11770000
-2.36242491,0.34369950,126.13300000
-2.36232491,0.34522540,125.55310000
-2.36222491,0.34650720,125.29370000
-2.36212491,0.34681230,124.80540000
-2.36202491,0.34888760,124.14930000
-2.36192491,0.35023040,124.08820000
-2.36182491,0.35163430,123.92040000
-2.36172491,0.35224460,123.41680000
-2.36162491,0.35340430,123.27950000
-2.36152491,0.35480820,123.38630000
-2.36142491,0.35560170,122.50130000
-2.36132491,0.35749380,122.08930000
-2.36122491,0.35822630,122.28770000
-2.36112491,0.35877560,121.73830000
-2.36102491,0.36103400,122.36400000
-2.36092491,0.36176640,120.62440000
-2.36082491,0.36268200,120.73120000
-2.36072491,0.36469620,119.86140000
-2.36062491,0.36512350,119.29690000
-2.36052491,0.36616110,119.57150000
-2.36042491,0.36732080,119.14430000
-2.36032491,0.36835840,119.20530000
-2.36022491,0.36976230,119.00690000
-2.36012491,0.37049470,118.10660000
-2.36002491,0.37183750,117.83200000
-2.35992491,0.37311930,117.70990000
-2.35982491,0.37464520,118.48810000
-2.35972491,0.37537770,118.03030000
-2.35962491,0.37592700,117.38940000
-2.35952491,0.37751400,116.53490000
-2.35942491,0.37812430,115.43630000
-2.35932491,0.37946720,114.96320000
-2.35922491,0.38038270,114.61230000
-2.35912491,0.38184760,114.64280000
-2.35902491,0.38276310,113.74250000
-2.35892491,0.38404490,113.91030000
-2.35882491,0.38544880,112.84220000
-2.35872491,0.38581500,112.70480000
-2.35862491,0.38685260,112.99480000
-2.35852491,0.38837860,111.92660000
-2.35842491,0.38917200,112.24710000
-2.35832491,0.39045380,112.24710000
-2.35822491,0.39112520,111.42310000
-2.35812491,0.39179660,110.93480000
-2.35802491,0.39350570,110.88900000
-2.35792491,0.39466540,110.15660000
-2.35782491,0.39490950,109.51570000
-2.35772491,0.39594710,109.95820000
-2.35762491,0.39759510,109.45460000
-2.35752491,0.39802240,108.78320000
-2.35742491,0.39997560,109.13420000
-2.35732491,0.40064700,108.44750000
-2.35722491,0.40113530,108.11180000
-2.35712491,0.40241710,108.21860000
-2.35702491,0.40388200,107.73030000
-2.35692491,0.40461440,107.51670000
-2.35682491,0.40522480,107.05890000
-2.35672491,0.40626240,106.73850000
-2.35662491,0.40784940,106.21970000
-2.35652491,0.40870390,105.89920000
-2.35642491,0.40931420,105.68560000
-2.35632491,0.41041290,105.63980000
-2.35622491,0.41145050,105.44140000
-2.35612491,0.41273230,105.33460000
-2.35602491,0.41352580,104.99890000
-2.35592491,0.41450240,104.77000000
-2.35582491,0.41517380,104.49540000
-2.35572491,0.41663870,104.29700000
-2.35562491,0.41737110,103.91550000
-2.35552491,0.41792050,103.77820000
-2.35542491,0.41962950,103.61030000
-2.35532491,0.42030090,103.03050000
-2.35522491,0.42127750,102.77110000
-2.35512491,0.42225410,102.57270000
-2.35502491,0.42335280,102.09970000
-2.35492491,0.42402420,101.97760000
-2.35482491,0.42506180,101.85550000
-2.35472491,0.42597730,101.41300000
-2.35462491,0.42695390,100.97050000
-2.35452491,0.42799160,100.83320000
-2.35442491,0.42945650,100.40590000
-2.35432491,0.42970060,100.05490000
-2.35422491,0.43086030,99.82604000
-2.35412491,0.43134860,99.59715000
-2.35402491,0.43208100,99.07834000
-2.35392491,0.43360700,98.71211000
-2.35382491,0.43433940,98.17804000
-2.35372491,0.43531600,97.70500000
-2.35362491,0.43684190,97.33878000
-2.35352491,0.43720820,96.92678000
-2.35342491,0.43836790,96.75893000
-2.35332491,0.43910030,96.51478000
-2.35322491,0.44068730,96.10278000
-2.35312491,0.44080930,95.90441000
-2.35302491,0.44172490,95.41611000
-2.35292491,0.44312880,95.08041000
-2.35282491,0.44367810,94.71419000
-2.35272491,0.44410540,94.22589000
-2.35262491,0.44520400,93.78337000
-2.35252491,0.44624160,93.32559000
-2.35242491,0.44691310,92.68471000
-2.35232491,0.44807280,92.36426000
-2.35222491,0.44825590,92.08959000
-2.35212491,0.44886620,91.61655000
-2.35202491,0.45008700,91.29612000
-2.35192491,0.45100250,90.92989000
-2.35182491,0.45197910,90.53316000
-2.35172491,0.45265050,90.12115000
-2.35162491,0.45319990,89.66338000
-2.35152491,0.45472580,89.28190000
-2.35142491,0.45509200,88.74783000
-2.35132491,0.45594650,88.21375000
-2.35122491,0.45716730,87.66441000
-2.35112491,0.45802180,87.34397000
-2.35102491,0.45857110,86.96249000
-2.35092491,0.45918150,86.50471000
-2.35082491,0.46058540,86.23004000
-2.35072491,0.46119570,85.63493000
-2.35062491,0.46217230,85.19241000
-2.35052491,0.46247750,84.78041000
-2.35042491,0.46339300,84.20056000
-2.35032491,0.46430860,83.78856000
-2.35022491,0.46473590,83.49863000
-2.35012491,0.46540730,82.90353000
-2.35002491,0.46644490,82.41523000
-2.34992491,0.46699420,82.00323000
-2.34982491,0.46772670,81.46916000
-2.34972491,0.46906950,80.87405000
-2.34962491,0.46980190,80.56886000
-2.34952491,0.46967990,79.79064000
-2.34942491,0.47102270,79.59227000
-2.34932491,0.47199930,78.27998000
-2.34922491,0.47206030,78.70723000
-2.34912491,0.47328110,78.23419000
-2.34902491,0.47389140,77.80694000
-2.34892491,0.47462390,77.27286000
-2.34882491,0.47541730,76.86086000
-2.34872491,0.47602770,76.31153000
-2.34862491,0.47682120,75.77745000
-2.34852491,0.47743160,75.18234000
-2.34842491,0.47846920,74.43464000
-2.34832491,0.47859130,71.81005000
-2.34822491,0.47956790,73.16812000
-2.34812491,0.48072760,72.46619000
-2.34802491,0.48091070,72.34412000
-2.34792491,0.48249760,72.40516000
-2.34782491,0.48237560,71.15390000
-2.34772491,0.48323010,71.32175000
-2.34762491,0.48286380,70.31464000
-2.34752491,0.48487810,69.75005000
-2.34742491,0.48530530,69.46012000
-2.34732491,0.48561050,68.60561000
-2.34722491,0.48597680,68.62086000
-2.34712491,0.48689230,68.23939000
-2.34702491,0.48719750,67.46116000
-2.34692491,0.48854030,67.03391000
-2.34682491,0.48908960,66.48457000
-2.34672491,0.48945580,65.67583000
-2.34662491,0.48945580,65.06545000
-2.34652491,0.49049350,64.76027000
-2.34642491,0.49116490,64.27197000
-2.34632491,0.49153110,63.67687000
-2.34622491,0.49269080,63.20383000
-2.34612491,0.49299600,62.36457000
-2.34602491,0.49378950,62.02887000
-2.34592491,0.49470510,61.79998000
-2.34582491,0.49433880,60.99124000
-2.34572491,0.49592580,60.59449000
-2.34562491,0.49598680,60.68605000
-2.34552491,0.49598680,60.07568000
-2.34542491,0.49726860,59.05331000
-2.34532491,0.49787900,58.93124000
-2.34522491,0.49763480,59.31272000
-2.34512491,0.49855040,58.06146000
-2.34502491,0.49879450,57.81731000
-2.34492491,0.50032040,57.34428000
