Time,Channel A,Channel B
(us),(V),(V)

-480.16663641,1.38813400,-0.22595900
-480.06663641,1.38355700,-0.22678300
-479.96663642,1.38142000,-0.22745450
-479.86663643,1.37714800,-0.22788170
-479.76663643,1.37287500,-0.22919400
-479.66663644,1.37012900,-0.23014010
-479.56663644,1.36570300,-0.23160500
-479.46663645,1.36372000,-0.23105560
-479.36663645,1.35792100,-0.23258160
-479.26663646,1.35563200,-0.23291730
-479.16663647,1.35212300,-0.23392440
-479.06663647,1.34846000,-0.23508410
-478.96663648,1.34495100,-0.23590810
-478.86663648,1.34052600,-0.23682360
-478.76663649,1.33777900,-0.23752560
-478.66663650,1.33411700,-0.23825800
-478.56663650,1.32862300,-0.23920410
-478.46663651,1.32602900,-0.23975340
-478.36663651,1.32282500,-0.24091310
-478.26663652,1.31946800,-0.24176760
-478.16663653,1.31550000,-0.24253060
-478.06663653,1.31229600,-0.24085210
-477.96663654,1.30787100,-0.24314100
-477.86663654,1.30436100,-0.24442270
-477.76663655,1.29993600,-0.24576560
-477.66663656,1.29642600,-0.24695580
-477.56663656,1.29322200,-0.24726100
-477.46663657,1.28925400,-0.24820700
-477.36663657,1.28513400,-0.24897000
-477.26663658,1.28086200,-0.24967190
-477.16663659,1.27781000,-0.25074010
-477.06663659,1.27430000,-0.25147250
-476.96663660,1.26926500,-0.25205240
-476.86663660,1.26667100,-0.25315100
-476.76663661,1.26331400,-0.25379190
-476.66663662,1.25934600,-0.25464650
-476.56663662,1.25476800,-0.25540940
-476.46663663,1.25171700,-0.25601980
-476.36663663,1.24729100,-0.25684380
-476.26663664,1.24301900,-0.25794240
-476.16663664,1.23889900,-0.25846130
-476.06663665,1.23600000,-0.25949890
-475.96663666,1.23264300,-0.26035340
-475.86663666,1.22882800,-0.26087220
-475.76663667,1.22547100,-0.26181830
-475.66663667,1.22196100,-0.26261180
-475.56663668,1.21707800,-0.26343580
-475.46663669,1.21372100,-0.26422930
-475.36663669,1.20990600,-0.26496170
-475.26663670,1.20578600,-0.26569410
-475.16663670,1.20197200,-0.26667070
-475.06663671,1.19769900,-0.26725060
-474.96663672,1.19403700,-0.26816620
-474.86663672,1.18976400,-0.26865440
-474.76663673,1.18594900,-0.26957000
-474.66663673,1.18289700,-0.27060760
-474.56663674,1.17755700,-0.27100440
-474.46663675,1.17435200,-0.27195040
-474.36663675,1.17023200,-0.27259130
-474.26663676,1.16748600,-0.27332380
-474.16663676,1.16290800,-0.27414780
-474.06663677,1.15863500,-0.27503280
-473.96663678,1.15451500,-0.27597890
-473.86663678,1.15085300,-0.27634510
-473.76663679,1.14749600,-0.27723010
-473.66663679,1.14368100,-0.27784050
-473.56663680,1.13925600,-0.27884760
-473.46663681,1.13574600,-0.27976320
-473.36663681,1.13132100,-0.28046510
-473.26663682,1.12613300,-0.28128910
-473.16663682,1.12308100,-0.28226570
-473.06663683,1.11957200,-0.28214360
-472.96663683,1.11545200,-0.28354750
-472.86663684,1.11117900,-0.28421890
-472.76663685,1.10751700,-0.28473770
-472.66663685,1.10354900,-0.28568380
-472.56663686,1.09958200,-0.28632470
-472.46663686,1.09515700,-0.28720970
-472.36663687,1.09210500,-0.28806420
-472.26663688,1.08813800,-0.28891870
-472.16663688,1.08371200,-0.28955960
-472.06663689,1.07928700,-0.28998690
-471.96663689,1.07501400,-0.29108550
-471.86663690,1.07043700,-0.29175700
-471.76663691,1.06677400,-0.29258100
-471.66663691,1.06296000,-0.29337440
-471.56663692,1.05929700,-0.29392380
-471.46663692,1.05502500,-0.29477830
-471.36663693,1.05105700,-0.29551070
-471.26663694,1.04678500,-0.29593800
-471.16663694,1.04342800,-0.29685350
-471.06663695,1.03854500,-0.29752500
-470.96663695,1.03503500,-0.29850160
-470.86663696,1.02954200,-0.29920350
-470.76663697,1.02694800,-0.29963070
-470.66663697,1.02298000,-0.30051580
-470.56663698,1.01825000,-0.30137030
-470.46663698,1.01367200,-0.30207220
-470.36663699,1.01062000,-0.30286570
-470.26663700,1.00634800,-0.30347610
-470.16663700,1.00253300,-0.30430010
-470.06663701,0.99780270,-0.30475780
-469.96663701,0.99368270,-0.30570390
-469.86663702,0.98956270,-0.30613120
-469.76663702,0.98544270,-0.30701620
-469.66663703,0.98162790,-0.30787070
-469.56663704,0.97705010,-0.30848110
-469.46663704,0.97231970,-0.30884730
-469.36663705,0.96881010,-0.30973230
-469.26663705,0.96591090,-0.31019010
-469.16663706,0.96026490,-0.31144140
-469.06663707,0.95660270,-0.31211280
-468.96663707,0.95171970,-0.31278420
-468.86663708,0.94775230,-0.31327250
-468.76663708,0.94363230,-0.31443220
-468.66663709,0.93890200,-0.31470690
-468.56663710,0.93585010,-0.31513410
-468.46663710,0.93066190,-0.31592760
-468.36663711,0.92715230,-0.31684320
-468.26663711,0.92272710,-0.31742300
-468.16663712,0.91845450,-0.31836910
-468.06663713,0.91357160,-0.31879630
-467.96663713,0.91021450,-0.31940670
-467.86663714,0.90502640,-0.32047490
-467.76663714,0.90090640,-0.32071900
-467.66663715,0.89724420,-0.32166510
-467.56663716,0.89312420,-0.32236700
-467.46663716,0.88808860,-0.32309950
-467.36663717,0.88381600,-0.32380140
-467.26663717,0.88000120,-0.32413710
-467.16663718,0.87511830,-0.32508320
-467.06663719,0.87221900,-0.32578510
-466.96663719,0.86794640,-0.32667010
-466.86663720,0.86321600,-0.32737200
-466.76663720,0.85802790,-0.32776880
-466.66663721,0.85421310,-0.32837920
-466.56663721,0.85009310,-0.32911160
-466.46663722,0.84643080,-0.32990510
-466.36663723,0.84215830,-0.33024080
-466.26663723,0.83849600,-0.33091220
-466.16663724,0.83315530,-0.33191930
-466.06663724,0.82873010,-0.33249910
-465.96663725,0.82430490,-0.33329260
-465.86663726,0.82049010,-0.33344520
-465.76663726,0.81637010,-0.33414720
-465.66663727,0.81179240,-0.33515430
-465.56663727,0.80706200,-0.33585620
-465.46663728,0.80339970,-0.33628340
-465.36663729,0.79866940,-0.33701590
-465.26663729,0.79500720,-0.33738210
-465.16663730,0.78997160,-0.33811460
-465.06663730,0.78569900,-0.33912170
-464.96663731,0.78173160,-0.33951840
-464.86663732,0.77730640,-0.34006770
-464.76663732,0.77288130,-0.34083070
-464.66663733,0.76845600,-0.34153260
-464.56663733,0.76296280,-0.34250920
-464.46663734,0.76036860,-0.34244820
-464.36663735,0.75472270,-0.34345530
-464.26663735,0.75106050,-0.34440140
-464.16663736,0.74678790,-0.34485920
-464.06663736,0.74159980,-0.34553060
-463.96663737,0.73870050,-0.34607990
-463.86663738,0.73397020,-0.34641560
-463.76663738,0.72862940,-0.34727010
-463.66663739,0.72496720,-0.34788050
-463.56663739,0.72069460,-0.34806360
-463.46663740,0.71642200,-0.34925380
-463.36663740,0.71245460,-0.34986420
-463.26663741,0.70863980,-0.35016940
-463.16663742,0.70467240,-0.35087130
-463.06663742,0.69887390,-0.35117650
-462.96663743,0.69368570,-0.35227520
-462.86663743,0.69002350,-0.35279400
-462.76663744,0.68544570,-0.35288550
-462.66663745,0.68056270,-0.35407580
-462.56663745,0.67629020,-0.35444200
-462.46663746,0.67049160,-0.35554060
-462.36663746,0.66805020,-0.35557120
-462.26663747,0.66286200,-0.35651720
-462.16663748,0.65919980,-0.35697500
-462.06663748,0.65324870,-0.35746330
-461.96663749,0.65019690,-0.35837890
-461.86663749,0.64607690,-0.35883660
-461.76663750,0.64043090,-0.35917230
-461.66663751,0.63722650,-0.36039310
-461.56663751,0.63234350,-0.36060670
-461.46663752,0.62761310,-0.36085090
-461.36663752,0.62379830,-0.36194950
-461.26663753,0.61815240,-0.36213260
-461.16663754,0.61403240,-0.36286510
-461.06663754,0.60914950,-0.36341440
-460.96663755,0.60563980,-0.36393320
-460.86663755,0.60151980,-0.36442150
-460.76663756,0.59694210,-0.36524550
-460.66663757,0.59266940,-0.36573380
-460.56663757,0.58748130,-0.36643570
-460.46663758,0.58351390,-0.36692400
-460.36663758,0.57863090,-0.36753440
-460.26663759,0.57420580,-0.36793120
-460.16663759,0.57039090,-0.36875520
-460.06663760,0.56535540,-0.36906030
-459.96663761,0.56169320,-0.36985380
-459.86663761,0.55681020,-0.37058620
-459.76663762,0.55192730,-0.37089150
-459.66663762,0.54841760,-0.37147130
-459.56663763,0.54322950,-0.37202060
-459.46663764,0.53880430,-0.37250890
-459.36663764,0.53514210,-0.37302770
-459.26663765,0.52888580,-0.37379070
-459.16663765,0.52568130,-0.37406540
-459.06663766,0.52064580,-0.37470630
-458.96663767,0.51530500,-0.37522510
-458.86663767,0.51194800,-0.37592700
-458.76663768,0.50675980,-0.37644580
-458.66663768,0.50340280,-0.37687310
-458.56663769,0.49821470,-0.37736140
-458.46663770,0.49378950,-0.37809380
-458.36663770,0.48890650,-0.37870420
-458.26663771,0.48387100,-0.38062690
-458.16663771,0.48066650,-0.37800230
-458.06663772,0.47593610,-0.38081000
-457.96663773,0.47151100,-0.38023010
-457.86663773,0.46632280,-0.38084050
-457.76663774,0.46205020,-0.38160340
-457.66663774,0.45808280,-0.38227480
-457.56663775,0.45167390,-0.38285470
-457.46663776,0.44770650,-0.38319040
-457.36663776,0.44343390,-0.38389230
-457.26663777,0.43961910,-0.38431960
-457.16663777,0.43397320,-0.38517410
-457.06663778,0.42970060,-0.38520460
-456.96663778,0.42527540,-0.38572340
-456.86663779,0.42130800,-0.38627280
-456.76663780,0.41581470,-0.38691370
-456.66663780,0.41108430,-0.38740200
-456.56663781,0.40910060,-0.38886680
-456.46663781,0.40284430,-0.38627280
-456.36663782,0.39780880,-0.38969080
-456.26663783,0.39292580,-0.38917200
-456.16663783,0.38789020,-0.39002650
-456.06663784,0.38468580,-0.39020970
-455.96663784,0.38010800,-0.39097260
-455.86663785,0.37476730,-0.39124730
-455.76663786,0.37125770,-0.39182710
-455.66663786,0.36637470,-0.39259010
-455.56663787,0.36149170,-0.39237650
-455.46663787,0.35584580,-0.39353620
-455.36663788,0.35157320,-0.39365830
-455.26663789,0.34852140,-0.39429910
-455.16663789,0.34318060,-0.39472640
-455.06663790,0.33738210,-0.39497050
-454.96663790,0.33356730,-0.39564200
-454.86663791,0.32914210,-0.39646600
-454.76663792,0.32486950,-0.39655750
-454.66663792,0.31983400,-0.39732050
-454.56663793,0.31540880,-0.39771720
-454.46663793,0.31159400,-0.39805290
-454.36663794,0.30655840,-0.39857170
-454.26663795,0.30121770,-0.39912110
-454.16663795,0.29709770,-0.39924310
-454.06663796,0.29328290,-0.39982300
-453.96663796,0.28763700,-0.40040280
-453.86663797,0.28244880,-0.40104370
-453.76663797,0.27939700,-0.40134890
-453.66663798,0.27405620,-0.40198980
-453.56663799,0.26963100,-0.40217290
-453.46663799,0.26444290,-0.40256970
-453.36663800,0.25986510,-0.40311900
-453.26663800,0.25559250,-0.40333260
-453.16663801,0.25025180,-0.40406510
-453.06663802,0.24628440,-0.40455340
-452.96663802,0.24201180,-0.40488910
-452.86663803,0.23682360,-0.40537740
-452.76663803,0.23331400,-0.40604880
-452.66663804,0.22843100,-0.40598770
-452.56663805,0.22385330,-0.40638450
-452.46663805,0.21958070,-0.40720850
-452.36663806,0.21393470,-0.40745260
-452.26663806,0.20935700,-0.40778830
-452.16663807,0.20462660,-0.40836820
-452.06663808,0.19974360,-0.40870390
-451.96663808,0.19577620,-0.40907010
-451.86663809,0.19043550,-0.40980260
-451.76663809,0.18662070,-0.41001620
-451.66663810,0.18219550,-0.41038240
-451.56663811,0.17792290,-0.41080970
-451.46663811,0.17303990,-0.41108430
-451.36663812,0.16754660,-0.41154210
-451.26663812,0.16312140,-0.41193880
-451.16663813,0.15900140,-0.41224400
-451.06663813,0.15381330,-0.41315960
-450.96663814,0.15030370,-0.41334270
-450.86663815,0.14465770,-0.41377000
-450.76663815,0.14084290,-0.41425820
-450.66663816,0.13596000,-0.41447190
-450.56663816,0.13031400,-0.41492970
-450.46663817,0.12573630,-0.41505170
-450.36663818,0.12085330,-0.41560110
-450.26663818,0.11688590,-0.41621140
-450.16663819,0.11398660,-0.41657770
-450.06663819,0.10803550,-0.41682180
-449.96663820,0.10361030,-0.41718800
-449.86663821,0.09765923,-0.41767630
-449.76663821,0.09338664,-0.41795100
-449.66663822,0.08957183,-0.41843930
-449.56663822,0.08575701,-0.41853090
-449.46663823,0.08117923,-0.41895810
-449.36663824,0.07538072,-0.41929380
-449.26663824,0.07095554,-0.41966000
-449.16663825,0.06591998,-0.42030090
-449.06663825,0.06088443,-0.42039250
-448.96663826,0.05783258,-0.42069770
-448.86663827,0.05203406,-0.42143010
-448.76663827,0.04715110,-0.42188790
-448.66663828,0.04287850,-0.42173530
-448.56663828,0.03845332,-0.42234560
-448.46663829,0.03357036,-0.42252880
-448.36663830,0.02883999,-0.42335280
-448.26663830,0.02319407,-0.42387160
-448.16663831,0.02059999,-0.42368850
-448.06663831,0.01495407,-0.42378000
-447.96663832,0.01083407,-0.42469560
-447.86663832,0.00671407,-0.42478710
-447.76663833,0.00061037,-0.42503130
-447.66663834,-0.00259407,-0.42527540
-447.56663834,-0.00854518,-0.42594680
-447.46663835,-0.01297037,-0.42625200
-447.36663835,-0.01724296,-0.42683190
-447.26663836,-0.02182074,-0.42683190
-447.16663837,-0.02670370,-0.42725910
-447.06663837,-0.03173925,-0.42765590
-446.96663838,-0.03601184,-0.42774740
-446.86663838,-0.04028443,-0.42811360
-446.76663839,-0.04654073,-0.42872400
-446.66663840,-0.05020295,-0.42847990
-446.56663840,-0.05478073,-0.42927340
-446.46663841,-0.06057924,-0.42960910
-446.36663841,-0.06347850,-0.42954800
-446.26663842,-0.06897183,-0.43006680
-446.16663843,-0.07431257,-0.43055510
-446.06663843,-0.07827998,-0.43089080
-445.96663844,-0.08362071,-0.43128760
-445.86663844,-0.08774071,-0.43128760
-445.76663845,-0.09125035,-0.43150120
-445.66663846,-0.09613331,-0.43177590
-445.56663846,-0.10147400,-0.43232520
-445.46663847,-0.10650960,-0.43250830
-445.36663847,-0.10971400,-0.43287450
-445.26663848,-0.11520740,-0.43299660
-445.16663849,-0.12070070,-0.43330180
-445.06663849,-0.12466810,-0.43369850
-444.96663850,-0.12909330,-0.43403420
-444.86663850,-0.13306070,-0.43446150
-444.76663851,-0.13946960,-0.43452250
-444.66663851,-0.14297920,-0.43470560
-444.56663852,-0.14740440,-0.43516340
-444.46663853,-0.15289770,-0.43556020
-444.36663853,-0.15747550,-0.43577380
-444.26663854,-0.16251110,-0.43610950
-444.16663854,-0.16510510,-0.43629260
-444.06663855,-0.17090370,-0.43656730
-443.96663856,-0.17609180,-0.43641470
-443.86663856,-0.18021180,-0.43702510
-443.76663857,-0.18478960,-0.43702510
-443.66663857,-0.18875700,-0.43726920
-443.56663858,-0.19409770,-0.43772700
-443.46663859,-0.19974360,-0.43821530
-443.36663859,-0.20310070,-0.43855100
-443.26663860,-0.20722070,-0.43858150
-443.16663860,-0.21240880,-0.43882560
-443.06663861,-0.21729180,-0.43845940
-442.96663862,-0.22247990,-0.43952760
-442.86663862,-0.22675250,-0.43949710
-442.76663863,-0.23117770,-0.43974120
-442.66663863,-0.23575550,-0.43998540
-442.56663864,-0.23895990,-0.44004640
-442.46663865,-0.24399550,-0.44065680
-442.36663865,-0.25009920,-0.44096200
-442.26663866,-0.25330360,-0.44053470
-442.16663866,-0.25849180,-0.44126710
-442.06663867,-0.26413770,-0.44157230
-441.96663868,-0.26825770,-0.44172490
-441.86663868,-0.27329330,-0.44169440
-441.76663869,-0.27680290,-0.44187750
-441.66663869,-0.28183840,-0.44221320
-441.56663870,-0.28672140,-0.44251840
-441.46663870,-0.29099400,-0.44276250
-441.36663871,-0.29465620,-0.44288460
-441.26663872,-0.30014950,-0.44288460
-441.16663872,-0.30518510,-0.44325080
-441.06663873,-0.30961030,-0.44358650
-440.96663873,-0.31449320,-0.44413590
-440.86663874,-0.31952880,-0.44419690
-440.76663875,-0.32303840,-0.44407480
-440.66663875,-0.32868440,-0.44462420
-440.56663876,-0.33265180,-0.44465470
-440.46663876,-0.33692430,-0.44465470
-440.36663877,-0.34195990,-0.44505140
-440.26663878,-0.34562210,-0.44511250
-440.16663878,-0.35111550,-0.44514300
-440.06663879,-0.35508290,-0.44563130
-439.96663879,-0.36088140,-0.44584490
-439.86663880,-0.36484880,-0.44569230
-439.76663881,-0.36790060,-0.44608910
-439.66663881,-0.37354650,-0.44630270
-439.56663882,-0.37842950,-0.44633320
-439.46663882,-0.38224430,-0.44651630
-439.36663883,-0.38758510,-0.44672990
-439.26663884,-0.39246800,-0.44727930
-439.16663884,-0.39658800,-0.44737080
-439.06663885,-0.40162360,-0.44715720
-438.96663885,-0.40543840,-0.44718770
-438.86663886,-0.41077910,-0.44761500
-438.76663887,-0.41505170,-0.44788970
-438.66663887,-0.41947690,-0.44599750
-438.56663888,-0.42466510,-0.44938500
-438.46663888,-0.42832730,-0.44706570
-438.36663889,-0.43458360,-0.44904940
-438.26663889,-0.43809320,-0.44880520
-438.16663890,-0.44160280,-0.44898830
-438.06663891,-0.44770650,-0.44886620
-437.96663891,-0.45106360,-0.44898830
-437.86663892,-0.45655690,-0.44929350
-437.76663892,-0.45976140,-0.44929350
-437.66663893,-0.46510210,-0.44959870
-437.56663894,-0.47044280,-0.44987340
-437.46663894,-0.47395240,-0.44959870
-437.36663895,-0.47868280,-0.44996490
-437.26663895,-0.48371840,-0.45002590
-437.16663896,-0.48707540,-0.45020910
-437.06663897,-0.49211100,-0.45030060
-436.96663897,-0.49455240,-0.44730980
-436.86663898,-0.49989320,-0.44926300
-436.76663898,-0.50508140,-0.45063630
-436.66663899,-0.50950650,-0.45017850
-436.56663900,-0.51484730,-0.45136870
-436.46663900,-0.51942500,-0.45109410
-436.36663901,-0.52247690,-0.45133820
-436.26663901,-0.52827540,-0.45136870
-436.16663902,-0.53285320,-0.45121620
-436.06663903,-0.53727840,-0.45133820
-435.96663903,-0.54185610,-0.45142980
-435.86663904,-0.54597620,-0.45158240
-435.76663904,-0.55085910,-0.45170450
-435.66663905,-0.55467390,-0.45185710
-435.56663906,-0.55986210,-0.45204020
-435.46663906,-0.56382950,-0.45213170
-435.36663907,-0.56794950,-0.45213170
-435.26663907,-0.57283240,-0.45210120
-435.16663908,-0.57756280,-0.45231480
-435.06663908,-0.58153020,-0.45262000
-434.96663909,-0.58748130,-0.45237590
-434.86663910,-0.59099100,-0.45237590
-434.76663910,-0.59541610,-0.45286420
-434.66663911,-0.60014650,-0.45262000
-434.56663911,-0.60396130,-0.45274210
-434.46663912,-0.60762350,-0.45274210
-434.36663913,-0.61342200,-0.45298620
-434.26663913,-0.61876280,-0.45289470
-434.16663914,-0.62196720,-0.45341350
-434.06663914,-0.62639240,-0.45316930
-433.96663915,-0.63081760,-0.45316930
-433.86663916,-0.63493760,-0.45341350
-433.76663916,-0.63997320,-0.45298620
-433.66663917,-0.64500870,-0.45332190
-433.56663917,-0.64973910,-0.45356610
-433.46663918,-0.65385910,-0.45356610
-433.36663919,-0.65797910,-0.45365770
-433.26663919,-0.66225170,-0.45381020
-433.16663920,-0.66637160,-0.45347450
-433.06663920,-0.67003390,-0.45356610
-432.96663921,-0.67537460,-0.45377970
-432.86663922,-0.67979980,-0.45353560
-432.76663922,-0.68437760,-0.45423750
-432.66663923,-0.68910800,-0.45371870
-432.56663923,-0.69307540,-0.45381020
-432.46663924,-0.69811090,-0.45411540
-432.36663925,-0.70146790,-0.45371870
-432.26663925,-0.70635090,-0.45377970
-432.16663926,-0.71153900,-0.45417650
-432.06663926,-0.71520130,-0.45390180
-431.96663927,-0.72023680,-0.45417650
-431.86663927,-0.72420420,-0.45414590
-431.76663928,-0.72862940,-0.45371870
-431.66663929,-0.73335980,-0.45435960
-431.56663929,-0.73641160,-0.45414590
-431.46663930,-0.74221010,-0.45439010
-431.36663930,-0.74541460,-0.45390180
-431.26663931,-0.75045010,-0.45426800
-431.16663932,-0.75502790,-0.45442060
-431.06663932,-0.75838490,-0.45417650
-430.96663933,-0.76387830,-0.45432900
-430.86663933,-0.76754050,-0.45411540
-430.76663934,-0.77135530,-0.45396280
-430.66663935,-0.77684870,-0.45435960
-430.56663935,-0.78081610,-0.45393230
-430.46663936,-0.78539380,-0.45417650
-430.36663936,-0.78844570,-0.45396280
-430.26663937,-0.79454940,-0.45426800
-430.16663938,-0.79897460,-0.45393230
-430.06663938,-0.80217900,-0.45396280
-429.96663939,-0.80706200,-0.45445110
-429.86663939,-0.81057160,-0.45417650
-429.76663940,-0.81606500,-0.45411540
-429.66663941,-0.82018490,-0.45402390
-429.56663941,-0.82399980,-0.45371870
-429.46663942,-0.82888270,-0.45396280
-429.36663942,-0.83269750,-0.45374920
-429.26663943,-0.83635970,-0.45396280
-429.16663944,-0.84154790,-0.45423750
-429.06663944,-0.84582050,-0.45359660
-428.96663945,-0.85024570,-0.45371870
-428.86663945,-0.85406050,-0.45417650
-428.76663946,-0.85802790,-0.45344400
-428.66663946,-0.86199530,-0.45350500
-428.56663947,-0.86748860,-0.45356610
-428.46663948,-0.87099830,-0.45341350
-428.36663948,-0.87679680,-0.45329140
-428.26663949,-0.87939080,-0.45347450
-428.16663949,-0.88381600,-0.45310830
-428.06663950,-0.88900420,-0.45329140
-427.96663951,-0.89236120,-0.45326090
-427.86663951,-0.89693900,-0.45319990
-427.76663952,-0.90105900,-0.45316930
-427.66663952,-0.90548420,-0.45319990
-427.56663953,-0.90945160,-0.45283370
-427.46663954,-0.91341900,-0.45319990
-427.36663954,-0.91723380,-0.45283370
-427.26663955,-0.92165900,-0.45240640
-427.16663955,-0.92577900,-0.45262000
-427.06663956,-0.93035670,-0.45252840
-426.96663957,-0.93508710,-0.45231480
