Time,Channel A,Channel B
(us),(V),(V)

-480.15997163,0.73641160,-0.30585650
-480.05997164,0.74190500,-0.30634480
-479.95997164,0.74678790,-0.30585650
-479.85997165,0.75365460,-0.30500200
-479.75997165,0.75991090,-0.30451370
-479.65997166,0.76509900,-0.30329300
-479.55997167,0.77074500,-0.30310980
-479.45997167,0.77547530,-0.30219430
-479.35997168,0.78066350,-0.30219430
-479.25997168,0.78646200,-0.30164500
-479.15997169,0.79165010,-0.30115660
-479.05997170,0.79760120,-0.30018000
-478.95997170,0.80401020,-0.29999690
-478.85997171,0.80843530,-0.29932550
-478.75997171,0.81453900,-0.29859310
-478.65997172,0.82079530,-0.29841000
-478.55997173,0.82491530,-0.29804380
-478.45997173,0.83086640,-0.29657890
-478.35997174,0.83620720,-0.29657890
-478.25997174,0.84185310,-0.29596850
-478.15997175,0.84780420,-0.29517500
-478.05997175,0.85253450,-0.29432050
-477.95997176,0.85772270,-0.29432050
-477.85997177,0.86413160,-0.29273360
-477.75997177,0.86855680,-0.29230630
-477.65997178,0.87511830,-0.29151280
-477.55997178,0.88015380,-0.29151280
-477.45997179,0.88534190,-0.29090240
-477.35997180,0.89037750,-0.29035310
-477.25997180,0.89693900,-0.28943750
-477.15997181,0.90105900,-0.28901030
-477.05997181,0.90624710,-0.28827780
-476.95997182,0.91235080,-0.28797270
-476.85997183,0.91753900,-0.28669090
-476.75997183,0.92272710,-0.28656880
-476.65997184,0.92867820,-0.28559220
-476.55997184,0.93340860,-0.28492080
-476.45997185,0.93844410,-0.28479870
-476.35997186,0.94531080,-0.28321180
-476.25997186,0.95110930,-0.28272350
-476.15997187,0.95568710,-0.28223520
-476.05997187,0.96102790,-0.28144170
-475.95997188,0.96591090,-0.28150270
-475.85997189,0.97079380,-0.28009890
-475.75997189,0.97735520,-0.27997680
-475.65997190,0.98239080,-0.27936640
-475.55997190,0.98742640,-0.27845090
-475.45997191,0.99154640,-0.27838980
-475.35997192,0.99780270,-0.27802360
-475.25997192,1.00283800,-0.27753530
-475.15997193,1.00817900,-0.27655870
-475.05997193,1.01443500,-0.27588730
-474.95997194,1.01886000,-0.27533800
-474.85997194,1.02526900,-0.27442240
-474.75997195,1.03015200,-0.27381210
-474.65997196,1.03473000,-0.27369000
-474.55997196,1.04007100,-0.27198090
-474.45997197,1.04480100,-0.27216410
-474.35997197,1.05044700,-0.27112640
-474.25997198,1.05548300,-0.27033300
-474.15997199,1.06036600,-0.26953950
-474.05997199,1.06585900,-0.26874600
-473.95997200,1.07104700,-0.26868500
-473.85997200,1.07562500,-0.26801350
-473.75997201,1.08188100,-0.26722010
-473.65997202,1.08737400,-0.26673180
-473.55997202,1.09256300,-0.26581620
-473.45997203,1.09714000,-0.26569410
-473.35997203,1.10263400,-0.26490070
-473.25997204,1.10751700,-0.26374100
-473.15997205,1.11240000,-0.26398510
-473.05997205,1.11789300,-0.26319160
-472.95997206,1.12262300,-0.26221500
-472.85997206,1.12796400,-0.26142160
-472.75997207,1.13315200,-0.26044500
-472.65997208,1.13925600,-0.25971250
-472.55997208,1.14276600,-0.25959040
-472.45997209,1.14902200,-0.25873590
-472.35997209,1.15375200,-0.25800350
-472.25997210,1.16000900,-0.25702690
-472.15997211,1.16336600,-0.25611130
-472.05997211,1.16962200,-0.25586720
-471.95997212,1.17389500,-0.25476850
-471.85997212,1.17908300,-0.25421920
-471.75997213,1.18350800,-0.25324260
-471.65997213,1.18808600,-0.25348680
-471.55997214,1.19449400,-0.25238810
-471.45997215,1.19876700,-0.25165560
-471.35997215,1.20304000,-0.25153360
-471.25997216,1.20899100,-0.25000760
-471.15997216,1.21356900,-0.25012970
-471.05997217,1.21982500,-0.24866480
-470.95997218,1.22394500,-0.24835960
-470.85997218,1.22928600,-0.24781030
-470.75997219,1.23325300,-0.24658960
-470.65997219,1.23981400,-0.24469740
-470.55997220,1.24332400,-0.24530780
-470.45997221,1.24897000,-0.24439220
-470.35997221,1.25309000,-0.24365980
-470.25997222,1.25827800,-0.24256110
-470.15997222,1.26239800,-0.24243900
-470.05997223,1.26728100,-0.24164560
-469.95997224,1.27323200,-0.24066900
-469.85997224,1.27750500,-0.23987550
-469.75997225,1.28360900,-0.23938720
-469.65997225,1.28681300,-0.23871580
-469.55997226,1.29322200,-0.23822750
-469.45997227,1.29841000,-0.23725090
-469.35997227,1.30222500,-0.23615220
-469.25997228,1.30756600,-0.23541980
-469.15997228,1.31168600,-0.23493150
-469.05997229,1.31656800,-0.23358870
-468.95997230,1.32084100,-0.23322250
-468.85997230,1.32618200,-0.23218480
-468.75997231,1.33091200,-0.23187960
-468.65997231,1.33579500,-0.23145240
-468.55997232,1.34037300,-0.22998750
-468.45997232,1.34586600,-0.22980440
-468.35997233,1.34922300,-0.22968230
-468.25997234,1.35471700,-0.22888880
-468.15997234,1.36005700,-0.22730190
-468.05997235,1.36402500,-0.22638630
-467.95997235,1.36906000,-0.22608110
-467.85997236,1.37394300,-0.22510450
-467.75997237,1.37821600,-0.22486040
-467.65997237,1.38340400,-0.22351760
-467.55997238,1.38844000,-0.22217470
-467.45997238,1.39225400,-0.22199160
-467.35997239,1.39683200,-0.22083190
-467.25997240,1.40232600,-0.22040470
-467.15997240,1.40705600,-0.21900080
-467.05997241,1.41071800,-0.21808530
-466.95997241,1.41499100,-0.21735280
-466.85997242,1.42002600,-0.21710870
-466.75997243,1.42506200,-0.21582690
-466.65997243,1.42902900,-0.21472820
-466.55997244,1.43376000,-0.21436200
-466.45997244,1.43803200,-0.21417890
-466.35997245,1.44200000,-0.21271400
-466.25997246,1.44673000,-0.21179850
-466.15997246,1.45161300,-0.21155430
-466.05997247,1.45649600,-0.21057770
-465.95997247,1.46061600,-0.20978420
-465.85997248,1.46473600,-0.20899080
-465.75997249,1.47053400,-0.20795310
-465.65997249,1.47511200,-0.20752590
-465.55997250,1.47831700,-0.20740380
-465.45997250,1.48426800,-0.20581680
-465.35997251,1.48854000,-0.20532850
-465.25997251,1.49174500,-0.20410780
-465.15997252,1.49662800,-0.20441300
-465.05997253,1.50105300,-0.20288710
-464.95997253,1.50608800,-0.20221560
-464.85997254,1.51036100,-0.20136110
-464.75997254,1.51463400,-0.20068970
-464.65997255,1.51829600,-0.19971310
-464.55997256,1.52287400,-0.19898070
-464.45997256,1.52775700,-0.19782100
-464.35997257,1.53187700,-0.19727160
-464.25997257,1.53691200,-0.19702750
-464.15997258,1.54118500,-0.19592880
-464.05997259,1.54530500,-0.19519640
-463.95997259,1.55034000,-0.19379250
-463.85997260,1.55385000,-0.19348730
-463.75997260,1.55888500,-0.19330420
-463.65997261,1.56178500,-0.19153420
-463.55997262,1.56743100,-0.19043550
-463.45997262,1.57124500,-0.18951990
-463.35997263,1.57475500,-0.18958100
-463.25997263,1.57979100,-0.18842130
-463.15997264,1.58360500,-0.18738370
-463.05997265,1.58818300,-0.18701740
-462.95997265,1.59260800,-0.18549150
-462.85997266,1.59764400,-0.18512530
-462.75997266,1.60100100,-0.18457590
-462.65997267,1.60512100,-0.18378250
-462.55997268,1.60908800,-0.18256170
-462.45997268,1.61290300,-0.18140200
-462.35997269,1.61809100,-0.18146310
-462.25997269,1.62190600,-0.18036440
-462.15997270,1.62541600,-0.17969300
-462.05997270,1.62968800,-0.17902160
-461.95997271,1.63411400,-0.17773980
-461.85997272,1.63777600,-0.17706840
-461.75997272,1.64235400,-0.17633590
-461.65997273,1.64586300,-0.17548140
-461.55997273,1.65074600,-0.17432170
-461.45997274,1.65425600,-0.17358930
-461.35997275,1.65807100,-0.17285680
-461.25997275,1.66234300,-0.17157510
-461.15997276,1.66661600,-0.17078160
-461.05997276,1.67043100,-0.17023230
-460.95997277,1.67302500,-0.16968290
-460.85997278,1.67775500,-0.16882840
-460.75997278,1.68157000,-0.16760770
-460.65997279,1.68538500,-0.16754660
-460.55997279,1.69042000,-0.16620380
-460.45997280,1.69423500,-0.16602070
-460.35997281,1.69805000,-0.16431160
-460.25997281,1.70171200,-0.16357920
-460.15997282,1.70613700,-0.16296880
-460.05997282,1.71041000,-0.16180910
-459.95997283,1.71285100,-0.16125980
-459.85997284,1.71727700,-0.16034420
-459.75997284,1.72048100,-0.15955080
-459.65997285,1.72383800,-0.15881830
-459.55997285,1.72673700,-0.15955080
-459.45997286,1.73329900,-0.15540020
-459.35997287,1.73619800,-0.15607170
-459.25997287,1.74153900,-0.15491200
-459.15997288,1.74474300,-0.15442370
-459.05997288,1.74901600,-0.15283670
-458.95997289,1.75191500,-0.15265360
-458.85997289,1.75527200,-0.15167700
-458.75997290,1.75954500,-0.15094450
-458.65997291,1.76351200,-0.14954070
-458.55997291,1.76656400,-0.14844200
-458.45997292,1.77098900,-0.14740440
-458.35997292,1.77404100,-0.14673300
-458.25997293,1.77694000,-0.14569540
-458.15997294,1.78029700,-0.14563430
-458.05997294,1.78518000,-0.14453570
-457.95997295,1.78792700,-0.14337600
-457.85997295,1.79311500,-0.14258250
-457.75997296,1.79708200,-0.14160590
-457.65997297,1.79952400,-0.14050720
-457.55997297,1.80394900,-0.14001890
-457.45997298,1.80654300,-0.13885920
-457.35997298,1.81005300,-0.13776050
-457.25997299,1.81402000,-0.13727230
-457.15997300,1.81783500,-0.13653980
-457.05997300,1.82119200,-0.13519700
-456.95997301,1.82454900,-0.13507490
-456.85997301,1.82836400,-0.13318280
-456.75997302,1.83217900,-0.13251140
-456.65997303,1.83492500,-0.13165690
-456.55997303,1.83904500,-0.13080230
-456.45997304,1.84270800,-0.13025300
-456.35997304,1.84637000,-0.12903230
-456.25997305,1.85049000,-0.12787260
-456.15997306,1.85232100,-0.12744530
-456.05997306,1.85674600,-0.12646870
-455.95997307,1.85934000,-0.12591940
-455.85997307,1.86300200,-0.12451550
-455.75997308,1.86559700,-0.12335580
-455.65997308,1.86880100,-0.12274540
-455.55997309,1.87246300,-0.12237920
-455.45997310,1.87612500,-0.12097540
-455.35997310,1.87902500,-0.12024290
-455.25997311,1.88360200,-0.11920530
-455.15997311,1.88619600,-0.11828970
-455.05997312,1.89001100,-0.11786250
-454.95997313,1.89306300,-0.11670280
-454.85997313,1.89657300,-0.11664170
-454.75997314,1.89947200,-0.11493270
-454.65997314,1.90160800,-0.11536000
-454.55997315,1.90572800,-0.11346780
-454.45997316,1.90954300,-0.11273540
-454.35997316,1.91229000,-0.11108740
-454.25997317,1.91534200,-0.11072120
-454.15997317,1.91915600,-0.10980560
-454.05997318,1.92175100,-0.10882900
-453.95997319,1.92526000,-0.10779140
-453.85997319,1.92907500,-0.10687580
-453.75997320,1.93121100,-0.10565510
-453.65997320,1.93502600,-0.10437330
-453.55997321,1.93777300,-0.10419020
-453.45997322,1.94128200,-0.10309150
-453.35997322,1.94372400,-0.10235910
-453.25997323,1.94738600,-0.10168770
-453.15997323,1.94937000,-0.10107730
-453.05997324,1.95349000,-0.09881894
-452.95997325,1.95532100,-0.09845271
-452.85997325,1.95913600,-0.09772027
-452.75997326,1.96295000,-0.09649953
-452.65997326,1.96554500,-0.09558398
-452.55997327,1.96768100,-0.09485152
-452.45997327,1.97149600,-0.09387493
-452.35997328,1.97393700,-0.09289834
-452.25997329,1.97790500,-0.09234901
-452.15997329,1.98065100,-0.09100620
-452.05997330,1.98294000,-0.09051790
-451.95997330,1.98675500,-0.08893093
-451.85997331,1.98965400,-0.08795434
-451.75997332,1.99163800,-0.08679464
-451.65997332,1.99423200,-0.08636738
-451.55997333,1.99758900,-0.08545183
-451.45997333,2.00109900,-0.08453627
-451.35997334,2.00354000,-0.08349864
-451.25997335,2.00552400,-0.08276620
-451.15997335,2.00949100,-0.08172857
-451.05997336,2.01269600,-0.08111820
-450.95997336,2.01437400,-0.07983642
-450.85997337,2.01742600,-0.07855465
-450.75997338,2.01956200,-0.07861568
-450.65997338,2.02246200,-0.07702872
-450.55997339,2.02597100,-0.07593005
-450.45997339,2.02826000,-0.07464828
-450.35997340,2.03054900,-0.07409894
-450.25997341,2.03283800,-0.07312235
-450.15997341,2.03619500,-0.07245094
-450.05997342,2.03970500,-0.07135227
-449.95997342,2.04199300,-0.06988738
-449.85997343,2.04413000,-0.06946012
-449.75997343,2.04687600,-0.06848353
-449.65997344,2.04931800,-0.06805628
-449.55997345,2.05343800,-0.06604205
-449.45997345,2.05450600,-0.06598102
-449.35997346,2.05710000,-0.06408887
-449.25997346,2.05908400,-0.06396680
-449.15997347,2.06122000,-0.06323435
-449.05997348,2.06411900,-0.06158635
-448.95997348,2.06717100,-0.06103702
-448.85997349,2.06885000,-0.05993835
-448.75997349,2.07266400,-0.05902280
-448.65997350,2.07419000,-0.05822932
-448.55997351,2.07663200,-0.05694754
-448.45997351,2.07983600,-0.05554369
-448.35997352,2.08197300,-0.05548265
-448.25997352,2.08380400,-0.05432295
-448.15997353,2.08670300,-0.05340739
-448.05997354,2.08883900,-0.05255287
-447.95997354,2.09097600,-0.05163732
-447.85997355,2.09311200,-0.05047762
-447.75997355,2.09509600,-0.05005036
-447.65997356,2.09723200,-0.04852443
-447.55997357,2.09936800,-0.04815821
-447.45997357,2.10364100,-0.04705954
-447.35997358,2.10470900,-0.04644917
-447.25997358,2.10715100,-0.04510636
-447.15997359,2.10959200,-0.04406873
-447.05997360,2.11035500,-0.04364147
-446.95997360,2.11249100,-0.04235969
-446.85997361,2.11630600,-0.04089480
-446.75997361,2.11752700,-0.04010132
-446.65997362,2.12027300,-0.03949095
-446.55997362,2.12256200,-0.03833125
-446.45997363,2.12515600,-0.03747673
-446.35997364,2.12668200,-0.03607288
-446.25997364,2.12820800,-0.03527940
-446.15997365,2.13110800,-0.03485214
-446.05997365,2.13461700,-0.03338725
-445.95997366,2.13538000,-0.03289896
-445.85997367,2.13812700,-0.03173925
-445.75997367,2.13950000,-0.03100681
-445.65997368,2.14163600,-0.03021332
-445.55997368,2.14270400,-0.02880947
-445.45997369,2.14590900,-0.02758873
-445.35997370,2.14682500,-0.02636799
-445.25997370,2.14819800,-0.02612384
-445.15997371,2.15063900,-0.02490310
-445.05997371,2.15292800,-0.02429273
-444.95997372,2.15460700,-0.02349925
-444.85997373,2.15598000,-0.02197333
-444.75997373,2.15872700,-0.02130192
-444.65997374,2.16071100,-0.01989807
-444.55997374,2.16315200,-0.01977599
-444.45997375,2.16483000,-0.01849422
-444.35997376,2.16589900,-0.01702933
-444.25997376,2.16757700,-0.01672414
-444.15997377,2.16971300,-0.01550340
-444.05997377,2.17169700,-0.01507614
-443.95997378,2.17307000,-0.01428266
-443.85997379,2.17520700,-0.01275674
-443.75997379,2.17673300,-0.01232948
-443.65997380,2.17886900,-0.01098666
-443.55997380,2.18024200,-0.00988800
-443.45997381,2.18192100,-0.00903348
-443.35997381,2.18314100,-0.00836207
-443.25997382,2.18558300,-0.00714133
-443.15997383,2.18710900,-0.00622578
-443.05997383,2.18924500,-0.00561541
-442.95997384,2.19199200,-0.00439467
-442.85997384,2.19245000,-0.00280770
-442.75997385,2.19382300,-0.00225837
-442.65997386,2.19580700,-0.00097659
-442.55997386,2.19824800,0.00000000
-442.45997387,2.19962200,0.00042726
-442.35997387,2.20099500,0.00177007
-442.25997388,2.20160500,0.00250252
-442.15997389,2.20343600,0.00354015
-442.05997389,2.20465700,0.00469985
-441.95997390,2.20694600,0.00549333
-441.85997390,2.20831900,0.00653096
-441.75997391,2.20954000,0.00738548
-441.65997392,2.21198200,0.00787378
-441.55997392,2.21152400,0.00897244
-441.45997393,2.21411800,0.01007111
-441.35997393,2.21579600,0.01055940
-441.25997394,2.21701700,0.01257363
-441.15997395,2.21900100,0.01306192
-441.05997395,2.21869600,0.01379437
-440.95997396,2.22052700,0.01495407
-440.85997396,2.22220500,0.01629688
-440.75997397,2.22434200,0.01684622
-440.65997398,2.22510500,0.01745659
-440.55997398,2.22708800,0.01849422
-440.45997399,2.22754600,0.01947081
-440.35997399,2.22876700,0.02038636
-440.25997400,2.22983500,0.02142399
-440.15997400,2.23181900,0.02270577
-440.05997401,2.23273400,0.02343822
-439.95997402,2.23273400,0.02417066
-439.85997402,2.23395500,0.02533036
-439.75997403,2.23517600,0.02630696
-439.65997403,2.23685400,0.02722251
-439.55997404,2.23731200,0.02807703
-439.45997405,2.23868500,0.02874844
-439.35997405,2.24097400,0.03027436
-439.25997406,2.24097400,0.03112888
-439.15997406,2.24311000,0.03204443
-439.05997407,2.24417900,0.03283792
-438.95997408,2.24539900,0.03369243
-438.85997408,2.24601000,0.03466903
-438.75997409,2.24723100,0.03643910
-438.65997409,2.24753600,0.03680532
-438.55997410,2.24936700,0.03796503
-438.45997411,2.24997700,0.03857540
-438.35997411,2.24997700,0.03863643
-438.25997412,2.25196100,0.04028443
-438.15997412,2.25440200,0.04168829
-438.05997413,2.25409700,0.04260384
-437.95997414,2.25455500,0.04321421
-437.85997414,2.25501300,0.04394665
-437.75997415,2.25623300,0.04474013
-437.65997415,2.25714900,0.04614399
-437.55997416,2.25699600,0.04687643
-437.45997417,2.25837000,0.04736473
-437.35997417,2.25989600,0.05029450
-437.25997418,2.26096400,0.04998932
-437.15997418,2.26096400,0.05053865
-437.05997419,2.26187900,0.05163732
-436.95997419,2.26233700,0.05310221
-436.85997420,2.26325300,0.05334635
-436.75997421,2.26310000,0.05462813
-436.65997421,2.26493100,0.05529954
-436.55997422,2.26508400,0.05615406
-436.45997422,2.26691500,0.05731376
-436.35997423,2.26661000,0.05835139
-436.25997424,2.26706700,0.05914487
-436.15997424,2.26752500,0.05963317
-436.05997425,2.26844100,0.06079287
-435.95997425,2.26844100,0.06152532
-435.85997426,2.26996700,0.06231879
-435.75997427,2.27057700,0.06341746
-435.65997427,2.27149300,0.06451613
-435.55997428,2.27210300,0.06506546
-435.45997428,2.27179800,0.06640828
-435.35997429,2.27195000,0.06793420
-435.25997430,2.27347600,0.06842250
-435.15997430,2.27469700,0.06958220
-435.05997431,2.27469700,0.07098605
-434.95997431,2.27576500,0.07147435
-434.85997432,2.27500200,0.07202368
-434.75997433,2.27576500,0.07318339
-434.65997433,2.27561300,0.07342754
-434.55997434,2.27652800,0.07489242
-434.45997434,2.27668100,0.07556383
-434.35997435,2.27652800,0.07678457
-434.25997436,2.27713800,0.07794427
-434.15997436,2.27866500,0.07904294
-434.05997437,2.27820700,0.07953124
-433.95997437,2.27835900,0.08050783
-433.85997438,2.27835900,0.08142339
-433.75997438,2.27927500,0.08221687
-433.65997439,2.27958000,0.08294931
-433.55997440,2.27927500,0.08435316
-433.45997440,2.28049600,0.08581805
-433.35997441,2.28095300,0.08655049
-433.25997441,2.28003800,0.08728294
-433.15997442,2.28080100,0.08825953
-433.05997443,2.28110600,0.08972442
-432.95997443,2.28080100,0.09033479
-432.85997444,2.28125900,0.09106723
-432.75997444,2.28095300,0.09149449
-432.65997445,2.28202200,0.09241004
-432.55997446,2.28217400,0.09375286
-432.45997446,2.28186900,0.09479049
-432.35997447,2.28202200,0.09546190
-432.25997447,2.28125900,0.09607227
-432.15997448,2.28232700,0.09778130
-432.05997449,2.28263200,0.09845271
-431.95997449,2.28141100,0.09918515
-431.85997450,2.28110600,0.10003970
-431.75997450,2.28186900,0.10156560
-431.65997451,2.28156400,0.10229800
-431.55997452,2.28232700,0.10376290
-431.45997452,2.28095300,0.10431230
-431.35997453,2.28125900,0.10528890
-431.25997453,2.28141100,0.10553300
-431.15997454,2.28247900,0.10766930
-431.05997455,2.28202200,0.10766930
-430.95997455,2.28080100,0.10913420
-430.85997456,2.28141100,0.10950040
-430.75997456,2.28003800,0.11023290
-430.65997457,2.28019000,0.11169770
-430.55997457,2.28003800,0.11224710
-430.45997458,2.28064800,0.11255230
-430.35997459,2.27912200,0.11365090
-430.25997459,2.28049600,0.11511580
-430.15997460,2.27988500,0.11554310
-430.05997460,2.27881700,0.11621450
-429.95997461,2.27881700,0.11743520
-429.85997462,2.27790200,0.11816770
-429.75997462,2.27851200,0.11938840
-429.65997463,2.27805400,0.12097540
-429.55997463,2.27698600,0.12115850
-429.45997464,2.27668100,0.12244030
-429.35997465,2.27698600,0.12311170
-429.25997465,2.27591800,0.12317270
-429.15997466,2.27576500,0.12439340
-429.05997466,2.27546000,0.12555310
-428.95997467,2.27576500,0.12634660
-428.85997468,2.27500200,0.12701800
-428.75997468,2.27362900,0.12829980
-428.65997469,2.27286600,0.12933740
-428.55997469,2.27362900,0.12958160
-428.45997470,2.27225600,0.13159580
-428.35997471,2.27179800,0.13171790
-428.25997471,2.27164500,0.13232830
-428.15997472,2.27042500,0.13361000
-428.05997472,2.27057700,0.13428140
-427.95997473,2.26935600,0.13550220
-427.85997474,2.26996700,0.13629570
-427.75997474,2.26828800,0.13727230
-427.65997475,2.26767800,0.13794370
-427.55997475,2.26767800,0.13879820
-427.45997476,2.26676200,0.13916440
-427.35997476,2.26584700,0.14044620
-427.25997477,2.26584700,0.14215520
-427.15997478,2.26386300,0.14215520
-427.05997478,2.26386300,0.14362010
-426.95997479,2.26294800,0.14484090
-426.85997479,2.26126900,0.14526810
-426.75997480,2.26157400,0.14618370
-426.65997481,2.26004800,0.14679400
-426.55997481,2.25913300,0.14832000
-426.45997482,2.25928500,0.14899140
-426.35997482,2.25837000,0.15015110
-426.25997483,2.25699600,0.14862510
-426.15997484,2.25592800,0.15124970
-426.05997484,2.25531800,0.15228740
-425.95997485,2.25501300,0.15338600
-425.85997485,2.25394400,0.15363020
