Time,Channel A,Channel B
(us),(V),(V)

-480.12495972,-0.65721610,-0.27320170
-480.02495973,-0.65187540,-0.27265240
-479.92495973,-0.64531390,-0.27265240
-479.82495974,-0.63798950,-0.27320170
-479.72495975,-0.63249610,-0.27320170
-479.62495975,-0.62669760,-0.27326270
-479.52495976,-0.62028870,-0.27369000
-479.42495976,-0.61326940,-0.27326270
-479.32495977,-0.60792870,-0.27381210
-479.22495978,-0.60090950,-0.27387310
-479.12495978,-0.59511100,-0.27369000
-479.02495979,-0.58854940,-0.27405620
-478.92495979,-0.58229320,-0.27375100
-478.82495980,-0.57618950,-0.27387310
-478.72495981,-0.57054350,-0.27405620
-478.62495981,-0.56398210,-0.27417830
-478.52495982,-0.55742060,-0.27369000
-478.42495982,-0.55085910,-0.27387310
-478.32495983,-0.54597620,-0.27399520
-478.22495983,-0.54017760,-0.27436140
-478.12495984,-0.53270060,-0.27405620
-478.02495985,-0.52598650,-0.27381210
-477.92495985,-0.51973020,-0.27381210
-477.82495986,-0.51423690,-0.27369000
-477.72495986,-0.50752280,-0.27405620
-477.62495987,-0.50050350,-0.27381210
-477.52495988,-0.49333170,-0.27338480
-477.42495988,-0.48860130,-0.27326270
-477.32495989,-0.48142950,-0.27362900
-477.22495989,-0.47532580,-0.27399520
-477.12495990,-0.46952730,-0.27350690
-477.02495991,-0.46220280,-0.27369000
-476.92495991,-0.45731990,-0.27350690
-476.82495992,-0.44953760,-0.27381210
-476.72495992,-0.44450210,-0.27332380
-476.62495993,-0.43900880,-0.27375100
-476.52495994,-0.43107390,-0.27362900
-476.42495994,-0.42542800,-0.27417830
-476.32495995,-0.41901910,-0.27344580
-476.22495995,-0.41184730,-0.27326270
-476.12495996,-0.40604880,-0.27411730
-476.02495997,-0.39979250,-0.27411730
-475.92495997,-0.39399390,-0.27344580
-475.82495998,-0.38773770,-0.27387310
-475.72495998,-0.38026060,-0.27399520
-475.62495999,-0.37491990,-0.27344580
-475.52496000,-0.36805320,-0.27381210
-475.42496000,-0.36149170,-0.27405620
-475.32496001,-0.35523550,-0.27369000
-475.22496001,-0.34943690,-0.27350690
-475.12496002,-0.34287550,-0.27332380
-475.02496002,-0.33616140,-0.27307960
-474.92496003,-0.33036290,-0.27375100
-474.82496004,-0.32349620,-0.27362900
-474.72496004,-0.31708730,-0.27289650
-474.62496005,-0.31098360,-0.27350690
-474.52496005,-0.30381180,-0.27301860
-474.42496006,-0.29725030,-0.27265240
-474.32496007,-0.29114660,-0.27344580
-474.22496007,-0.28504290,-0.27307960
-474.12496008,-0.27817620,-0.27295760
-474.02496008,-0.27268290,-0.27301860
-473.92496009,-0.26642660,-0.27295760
-473.82496010,-0.25910210,-0.27222510
-473.72496010,-0.25299840,-0.27265240
-473.62496011,-0.24628440,-0.27222510
-473.52496011,-0.24063840,-0.27185890
-473.42496012,-0.23468730,-0.27228610
-473.32496013,-0.22766810,-0.27246930
-473.22496013,-0.22080140,-0.27173680
-473.12496014,-0.21485030,-0.27143160
-473.02496014,-0.20844140,-0.27228610
-472.92496015,-0.20096440,-0.27149270
-472.82496016,-0.19516590,-0.27173680
-472.72496016,-0.18845180,-0.27167580
-472.62496017,-0.18341620,-0.27173680
-472.52496017,-0.17670220,-0.27106540
-472.42496018,-0.17014070,-0.27100440
-472.32496019,-0.16388440,-0.27069920
-472.22496019,-0.15656000,-0.27082120
-472.12496020,-0.14938810,-0.27057710
-472.02496020,-0.14374220,-0.27063810
-471.92496021,-0.13824880,-0.27137060
-471.82496021,-0.13107700,-0.27106540
-471.72496022,-0.12466810,-0.27045500
-471.62496023,-0.11871700,-0.27069920
-471.52496023,-0.11261330,-0.27143160
-471.42496024,-0.10498370,-0.27069920
-471.32496024,-0.09826960,-0.27002780
-471.22496025,-0.09247109,-0.26978360
-471.12496026,-0.08575701,-0.26990570
-471.02496026,-0.07827998,-0.27002780
-470.92496027,-0.07248146,-0.27008880
-470.82496027,-0.06775109,-0.26996670
-470.72496028,-0.06042665,-0.26953950
-470.62496029,-0.05432295,-0.26966150
-470.52496029,-0.04684591,-0.26929530
-470.42496030,-0.04043702,-0.26892910
-470.32496030,-0.03433332,-0.26886810
-470.22496031,-0.02792444,-0.26923430
-470.12496032,-0.02136296,-0.26892910
-470.02496032,-0.01510666,-0.26929530
-469.92496033,-0.00976592,-0.26892910
-469.82496033,-0.00244148,-0.26789150
-469.72496034,0.00412000,-0.26856290
-469.62496035,0.01022370,-0.26776940
-469.52496035,0.01739555,-0.26758630
-469.42496036,0.02273629,-0.26868500
-469.32496036,0.03006073,-0.26728110
-469.22496037,0.03662221,-0.26728110
-469.12496038,0.04257332,-0.26673180
-469.02496038,0.04852443,-0.26697590
-468.92496039,0.05523850,-0.26673180
-468.82496039,0.06195258,-0.26703690
-468.72496040,0.06805628,-0.26685380
-468.62496040,0.07461776,-0.26636560
-468.52496041,0.08148442,-0.26648760
-468.42496042,0.08697775,-0.26660970
-468.32496042,0.09384441,-0.26624350
-468.22496043,0.10010070,-0.26538900
-468.12496043,0.10605180,-0.26569410
-468.02496044,0.11322370,-0.26587720
-467.92496045,0.12085330,-0.26429030
-467.82496045,0.12772000,-0.26471750
-467.72496046,0.13229770,-0.26453440
-467.62496046,0.13885920,-0.26496170
-467.52496047,0.14511550,-0.26526690
-467.42496048,0.15167700,-0.26453440
-467.32496048,0.15823850,-0.26502270
-467.22496049,0.16495250,-0.26386300
-467.12496049,0.17075110,-0.26435130
-467.02496050,0.17700730,-0.26343580
-466.92496051,0.18448440,-0.26343580
-466.82496051,0.19058810,-0.26355790
-466.72496052,0.19775990,-0.26343580
-466.62496052,0.20279550,-0.26319160
-466.52496053,0.20889920,-0.26264230
-466.42496054,0.21652880,-0.26215400
-466.32496054,0.22232730,-0.26203190
-466.22496055,0.22827850,-0.26184880
-466.12496055,0.23545030,-0.26190980
-466.02496056,0.24124880,-0.26129950
-465.92496057,0.24811550,-0.26142160
-465.82496057,0.25406660,-0.26111640
-465.72496058,0.26078070,-0.26044500
-465.62496058,0.26718960,-0.26032290
-465.52496059,0.27375100,-0.26081120
-465.42496059,0.28077030,-0.26001770
-465.32496060,0.28641620,-0.26050600
-465.22496061,0.29251990,-0.25971250
-465.12496061,0.29892880,-0.25952940
-465.02496062,0.30564290,-0.25873590
-464.92496062,0.31083100,-0.25885800
-464.82496063,0.31815550,-0.25836970
-464.72496064,0.32502210,-0.25824760
-464.62496064,0.33112580,-0.25843070
-464.52496065,0.33783990,-0.25855280
-464.42496065,0.34348580,-0.25800350
-464.32496066,0.35050510,-0.25763730
-464.22496067,0.35462510,-0.25751520
-464.12496067,0.36164430,-0.25702690
-464.02496068,0.36820580,-0.25702690
-463.92496068,0.37583540,-0.25721000
-463.82496069,0.38239690,-0.25653860
-463.72496070,0.38758510,-0.25617240
-463.62496070,0.39445170,-0.25623340
-463.52496071,0.40147100,-0.25550100
-463.42496071,0.40711690,-0.25531780
-463.32496072,0.41367840,-0.25501270
-463.22496073,0.42008730,-0.25501270
-463.12496073,0.42649620,-0.25470750
-463.02496074,0.43214210,-0.25397500
-462.92496074,0.43855100,-0.25391400
-462.82496075,0.44480730,-0.25354780
-462.72496076,0.45136870,-0.25324260
-462.62496076,0.45777760,-0.25354780
-462.52496077,0.46464430,-0.25305950
-462.42496077,0.47105320,-0.25244910
-462.32496078,0.47746210,-0.25275430
-462.22496078,0.48371840,-0.25196080
-462.12496079,0.48966950,-0.25171670
-462.02496080,0.49592580,-0.25122840
-461.92496080,0.50248720,-0.25080110
-461.82496081,0.50843830,-0.25074010
-461.72496081,0.51515250,-0.25043490
-461.62496082,0.51988280,-0.25037380
-461.52496083,0.52705470,-0.25043490
-461.42496083,0.53331090,-0.24958040
-461.32496084,0.53910950,-0.24921410
-461.22496084,0.54567090,-0.24964140
-461.12496085,0.55192730,-0.24945830
-461.02496086,0.55848870,-0.24835960
-460.92496086,0.56474500,-0.24787130
-460.82496087,0.57054350,-0.24823760
-460.72496087,0.57725760,-0.24811550
-460.62496088,0.58214060,-0.24695580
-460.52496089,0.58885460,-0.24701680
-460.42496089,0.59495840,-0.24671160
-460.32496090,0.60213020,-0.24671160
-460.22496090,0.60792870,-0.24628440
-460.12496091,0.61494800,-0.24591820
-460.02496092,0.62074650,-0.24524670
-459.92496092,0.62562940,-0.24506360
-459.82496093,0.63219090,-0.24445330
-459.72496093,0.63859980,-0.24439220
-459.62496094,0.64470350,-0.24433120
-459.52496095,0.65157020,-0.24365980
-459.42496095,0.65782650,-0.24317150
-459.32496096,0.66331980,-0.24317150
-459.22496096,0.67094950,-0.24298840
-459.12496097,0.67522200,-0.24213390
-459.02496097,0.68254640,-0.24140140
-458.92496098,0.68926050,-0.24170660
-458.82496099,0.69490650,-0.24146240
-458.72496099,0.70131530,-0.24146240
-458.62496100,0.70619830,-0.24140140
-458.52496100,0.71306500,-0.24048580
-458.42496101,0.71916870,-0.23957030
-458.32496102,0.72588280,-0.23932610
-458.22496102,0.73091830,-0.23944820
-458.12496103,0.73870050,-0.23841060
-458.02496103,0.74327830,-0.23841060
-457.92496104,0.75075530,-0.23786130
-457.82496105,0.75609610,-0.23767820
-457.72496105,0.76158940,-0.23780020
-457.62496106,0.76891390,-0.23670160
-457.52496106,0.77410200,-0.23651840
-457.42496107,0.78096870,-0.23645740
-457.32496108,0.78707240,-0.23615220
-457.22496108,0.79256570,-0.23517560
-457.12496109,0.80004270,-0.23493150
-457.02496109,0.80401020,-0.23456530
-456.92496110,0.81102940,-0.23426010
-456.82496111,0.81698050,-0.23401590
-456.72496111,0.82354200,-0.23303930
-456.62496112,0.82918790,-0.23328350
-456.52496112,0.83483380,-0.23322250
-456.42496113,0.84047970,-0.23249000
-456.32496114,0.84780420,-0.23151340
-456.22496114,0.85299240,-0.23084200
-456.12496115,0.85863830,-0.23133030
-456.02496115,0.86474200,-0.23096410
-455.92496116,0.87099830,-0.23071990
-455.82496116,0.87847530,-0.22968230
-455.72496117,0.88351080,-0.22949920
-455.62496118,0.88900420,-0.22919400
-455.52496118,0.89602350,-0.22888880
-455.42496119,0.90090640,-0.22803430
-455.32496119,0.90655230,-0.22760700
-455.22496120,0.91372420,-0.22717980
-455.12496121,0.91830190,-0.22717980
-455.02496121,0.92471080,-0.22577590
-454.92496122,0.93111970,-0.22547080
-454.82496122,0.93661310,-0.22571490
-454.72496123,0.94195380,-0.22589800
-454.62496124,0.94912560,-0.22559280
-454.52496124,0.95477160,-0.22486040
-454.42496125,0.95950190,-0.22449420
-454.32496125,0.96530040,-0.22431100
-454.22496126,0.97262490,-0.22321240
-454.12496127,0.97720270,-0.22321240
-454.02496127,0.98376420,-0.22284620
-453.92496128,0.98956270,-0.22168650
-453.82496128,0.99597160,-0.22125920
-453.72496129,1.00146500,-0.22077090
-453.62496130,1.00772100,-0.22016050
-453.52496130,1.01245200,-0.22034360
-453.42496131,1.01779200,-0.21991640
-453.32496131,1.02465900,-0.21936700
-453.22496132,1.03122000,-0.21900080
-453.12496133,1.03595100,-0.21845150
-453.02496133,1.04129200,-0.21784110
-452.92496134,1.04739500,-0.21704760
-452.82496134,1.05304100,-0.21704760
-452.72496135,1.06036600,-0.21698660
-452.62496135,1.06463800,-0.21582690
-452.52496136,1.07104700,-0.21570480
-452.42496137,1.07577700,-0.21570480
-452.32496137,1.08249200,-0.21515550
-452.22496138,1.08859500,-0.21460620
-452.12496138,1.09271500,-0.21478930
-452.02496139,1.09866600,-0.21399580
-451.92496140,1.10492300,-0.21314130
-451.82496140,1.11133100,-0.21265300
-451.72496141,1.11652000,-0.21228680
-451.62496141,1.12231800,-0.21161530
-451.52496142,1.12674300,-0.21167640
-451.42496143,1.13391500,-0.21088290
-451.32496143,1.13895100,-0.21100500
-451.22496144,1.14536000,-0.21002840
-451.12496144,1.15024300,-0.20966220
-451.02496145,1.15497300,-0.20899080
-450.92496146,1.16138200,-0.20856350
-450.82496146,1.16702800,-0.20819730
-450.72496147,1.17236900,-0.20807520
-450.62496147,1.17801500,-0.20722070
-450.52496148,1.18350800,-0.20673240
-450.42496149,1.19022200,-0.20642720
-450.32496149,1.19510500,-0.20532850
-450.22496150,1.20166600,-0.20520650
-450.12496150,1.20624400,-0.20490130
-450.02496151,1.21158500,-0.20447400
-449.92496152,1.21753600,-0.20355850
-449.82496152,1.22226600,-0.20331430
-449.72496153,1.22898000,-0.20258190
-449.62496153,1.23477900,-0.20239870
-449.52496154,1.24073000,-0.20197150
-449.42496154,1.24454500,-0.20130010
-449.32496155,1.25034300,-0.20105590
-449.22496156,1.25553100,-0.20050660
-449.12496156,1.26117700,-0.20007940
-449.02496157,1.26682300,-0.19916380
-448.92496157,1.27308000,-0.19873650
-448.82496158,1.27781000,-0.19837030
-448.72496159,1.28345600,-0.19800410
-448.62496159,1.28879700,-0.19757680
-448.52496160,1.29459500,-0.19672230
-448.42496160,1.29902000,-0.19641710
-448.32496161,1.30527700,-0.19635610
-448.22496162,1.31031200,-0.19562370
-448.12496162,1.31580600,-0.19415880
-448.02496163,1.32084100,-0.19452500
-447.92496163,1.32664000,-0.19409770
-447.82496164,1.33091200,-0.19336530
-447.72496165,1.33610000,-0.19251080
-447.62496165,1.34128800,-0.19287700
-447.52496166,1.34754500,-0.19177830
-447.42496166,1.35151200,-0.19196140
-447.32496167,1.35761600,-0.19043550
-447.22496168,1.36265100,-0.19019140
-447.12496168,1.36860300,-0.18964200
-447.02496169,1.37379100,-0.18909270
-446.92496169,1.37897900,-0.18799400
-446.82496170,1.38355700,-0.18787190
-446.72496171,1.39011800,-0.18750570
-446.62496171,1.39545900,-0.18701740
-446.52496172,1.39973100,-0.18597980
-446.42496172,1.40492000,-0.18561360
-446.32496173,1.40949700,-0.18524730
-446.22496173,1.41590600,-0.18488110
-446.12496174,1.42017900,-0.18445390
-446.02496175,1.42613000,-0.18390450
-445.92496175,1.43055500,-0.18280590
-445.82496176,1.43665900,-0.18323310
-445.72496176,1.44093100,-0.18207340
-445.62496177,1.44718800,-0.18231760
-445.52496178,1.45161300,-0.18103580
-445.42496178,1.45619100,-0.17987610
-445.32496179,1.46137900,-0.17975400
-445.22496179,1.46733000,-0.17920470
-445.12496180,1.47160300,-0.17865540
-445.02496181,1.47648500,-0.17859430
-444.92496181,1.48197900,-0.17767880
-444.82496182,1.48732000,-0.17700730
-444.72496182,1.49189700,-0.17627490
-444.62496183,1.49632300,-0.17535940
-444.52496184,1.50105300,-0.17529830
-444.42496184,1.50685100,-0.17426070
-444.32496185,1.51142900,-0.17383340
-444.22496185,1.51661700,-0.17377240
-444.12496186,1.52119500,-0.17310100
-444.02496187,1.52729900,-0.17218540
-443.92496187,1.53172400,-0.17206340
-443.82496188,1.53737000,-0.17139190
-443.72496188,1.54149000,-0.17035430
-443.62496189,1.54652500,-0.17017120
-443.52496190,1.55140800,-0.17004910
-443.42496190,1.55690200,-0.16925570
-443.32496191,1.56071700,-0.16834010
-443.22496191,1.56514200,-0.16772970
-443.12496192,1.57048200,-0.16675310
-443.02496192,1.57567100,-0.16663110
-442.92496193,1.58055400,-0.16663110
-442.82496194,1.58589400,-0.16510510
-442.72496194,1.59001400,-0.16486100
-442.62496195,1.59459200,-0.16425060
-442.52496195,1.60039100,-0.16376230
-442.42496196,1.60420500,-0.16321300
-442.32496197,1.60954600,-0.16284680
-442.22496197,1.61473400,-0.16254160
-442.12496198,1.61900700,-0.16144290
-442.02496198,1.62312700,-0.16101570
-441.92496199,1.62755200,-0.16052740
-441.82496200,1.63335100,-0.15900140
-441.72496200,1.63747100,-0.15979490
-441.62496201,1.64296400,-0.15826900
-441.52496201,1.64708400,-0.15826900
-441.42496202,1.65166200,-0.15723140
-441.32496203,1.65547700,-0.15637680
-441.22496203,1.66020700,-0.15588850
-441.12496204,1.66524200,-0.15564440
-441.02496204,1.66905700,-0.15515610
-440.92496205,1.67333000,-0.15478990
-440.82496206,1.67867100,-0.15405740
-440.72496206,1.68385900,-0.15301980
-440.62496207,1.68767400,-0.15253150
-440.52496207,1.69240400,-0.15210430
-440.42496208,1.69560800,-0.15186010
-440.32496209,1.70049100,-0.15234840
-440.22496209,1.70445900,-0.14941860
-440.12496210,1.70949400,-0.14917450
-440.02496210,1.71514000,-0.14850310
-439.92496211,1.71880200,-0.14868620
-439.82496211,1.72338000,-0.14807580
-439.72496212,1.72734800,-0.14703820
-439.62496213,1.73177300,-0.14679400
-439.52496213,1.73772400,-0.14569540
-439.42496214,1.74123400,-0.14563430
-439.32496214,1.74626900,-0.14416940
-439.22496215,1.75054200,-0.14392530
-439.12496216,1.75542500,-0.14300970
-439.02496216,1.75832400,-0.14300970
-438.92496217,1.76381700,-0.14160590
-438.82496217,1.76763200,-0.14117860
-438.72496218,1.77221000,-0.14075140
-438.62496219,1.77755100,-0.14026310
-438.52496219,1.78045000,-0.13959170
-438.42496220,1.78579100,-0.13873710
-438.32496220,1.78930000,-0.13843200
-438.22496221,1.79433600,-0.13721120
-438.12496222,1.79799800,-0.13690600
-438.02496222,1.80150800,-0.13623460
-437.92496223,1.80608500,-0.13586840
-437.82496223,1.81005300,-0.13556320
-437.72496224,1.81463100,-0.13458660
-437.62496225,1.81844500,-0.13379310
-437.52496225,1.82378600,-0.13312170
-437.42496226,1.82592200,-0.13251140
-437.32496226,1.83019500,-0.13196200
-437.22496227,1.83462000,-0.13129060
-437.12496227,1.83843500,-0.13043610
-437.02496228,1.84270800,-0.12945950
-436.92496229,1.84728500,-0.12909330
-436.82496229,1.85140500,-0.12829980
-436.72496230,1.85552500,-0.12768950
-436.62496230,1.85903500,-0.12707910
-436.52496231,1.86361300,-0.12646870
-436.42496232,1.86758000,-0.12561420
-436.32496232,1.87170000,-0.12549210
-436.22496233,1.87490500,-0.12439340
-436.12496233,1.87994000,-0.12414930
-436.02496234,1.88314500,-0.12353890
-435.92496235,1.88665400,-0.12323370
-435.82496235,1.89153700,-0.12219610
-435.72496236,1.89565700,-0.12134160
-435.62496236,1.89977700,-0.12060910
-435.52496237,1.90206600,-0.11987670
-435.42496238,1.90755900,-0.11920530
-435.32496238,1.91122200,-0.11847290
-435.22496239,1.91488400,-0.11798460
-435.12496239,1.91854600,-0.11731310
-435.02496240,1.92205600,-0.11664170
-434.92496241,1.92602300,-0.11603140
-434.82496241,1.92983800,-0.11462750
-434.72496242,1.93350000,-0.11426130
-434.62496242,1.93746800,-0.11346780
-434.52496243,1.94128200,-0.11291850
-434.42496244,1.94387700,-0.11212500
-434.32496244,1.94692800,-0.11145360
-434.22496245,1.95196400,-0.11120950
-434.12496245,1.95608400,-0.11059910
-434.02496246,1.95837300,-0.10956150
-433.92496246,1.96234000,-0.10968350
-433.82496247,1.96615500,-0.10852380
-433.72496248,1.96951200,-0.10718100
-433.62496248,1.97393700,-0.10736410
-433.52496249,1.97805700,-0.10644860
-433.42496249,1.98095600,-0.10571610
-433.32496250,1.98431300,-0.10522780
-433.22496251,1.98843300,-0.10437330
-433.12496251,1.99163800,-0.10333570
-433.02496252,1.99560500,-0.10315260
-432.92496252,1.99896200,-0.10254220
-432.82496253,2.00262500,-0.10180970
-432.72496254,2.00491400,-0.10150460
-432.62496254,2.00811800,-0.10065000
-432.52496255,2.01223800,-0.09979553
-432.42496255,2.01574800,-0.09973449
-432.32496256,2.02002000,-0.09802546
-432.22496257,2.02307200,-0.09826960
-432.12496257,2.02536100,-0.09729300
-432.02496258,2.02917600,-0.09649953
-431.92496258,2.03253300,-0.09607227
-431.82496259,2.03558500,-0.09503464
-431.72496260,2.03939900,-0.09393597
-431.62496260,2.04275600,-0.09326456
-431.52496261,2.04672400,-0.09289834
-431.42496261,2.04977600,-0.09210486
-431.32496262,2.05282800,-0.09125035
-431.22496263,2.05511600,-0.09027375
-431.12496263,2.05877900,-0.09057894
-431.02496264,2.06198300,-0.08911405
-430.92496264,2.06457700,-0.08905301
-430.82496265,2.06808700,-0.08832057
-430.72496265,2.07205400,-0.08771019
-430.62496266,2.07434300,-0.08679464
-430.52496267,2.07831000,-0.08642842
-430.42496267,2.08197300,-0.08526871
-430.32496268,2.08349900,-0.08447523
-430.22496268,2.08655000,-0.08337657
-430.12496269,2.09036500,-0.08264412
-430.02496270,2.09402800,-0.08258308
-429.92496270,2.09662200,-0.08124027
-429.82496271,2.09952100,-0.08124027
-429.72496271,2.10196200,-0.07989746
-429.62496272,2.10531900,-0.08014160
-429.52496273,2.10776100,-0.07861568
-429.42496273,2.11188100,-0.07800531
-429.32496274,2.11462800,-0.07794427
-429.22496274,2.11767900,-0.07727286
-429.12496275,2.12057900,-0.07611316
-429.02496276,2.12317300,-0.07574694
-428.92496276,2.12653000,-0.07422101
-428.82496277,2.12866600,-0.07348857
-428.72496277,2.13324400,-0.07263406
-428.62496278,2.13599000,-0.07245094
-428.52496279,2.13766900,-0.07177953
-428.42496279,2.14026300,-0.07025361
-428.32496280,2.14331500,-0.07025361
-428.22496280,2.14636700,-0.06946012
-428.12496281,2.14880800,-0.06909391
-428.02496282,2.15109700,-0.06775109
-427.92496282,2.15537000,-0.06677450
-427.82496283,2.15735300,-0.06695761
-427.72496283,2.16025300,-0.06604205
-427.62496284,2.16238900,-0.06512650
-427.52496284,2.16483000,-0.06506546
-427.42496285,2.16834000,-0.06372265
-427.32496286,2.17123900,-0.06305124
-427.22496286,2.17246000,-0.06262398
-427.12496287,2.17597000,-0.06195258
-427.02496287,2.17871600,-0.06085391
-426.92496288,2.18131000,-0.06048769
-426.82496289,2.18543100,-0.05951110
-426.72496289,2.18482000,-0.05969420
-426.62496290,2.18909300,-0.05859554
