Time,Channel A,Channel B
(us),(V),(V)

-480.18680536,-1.32801300,-0.22193060
-480.08680537,-1.32145100,-0.22296820
-479.98680537,-1.31672100,-0.22260200
-479.88680538,-1.31122800,-0.22272410
-479.78680539,-1.30573400,-0.22254100
-479.68680539,-1.29978300,-0.22302930
-479.58680540,-1.29444300,-0.22315130
-479.48680540,-1.28894900,-0.22418900
-479.38680541,-1.28315100,-0.22412790
-479.28680542,-1.27765700,-0.22437210
-479.18680542,-1.27170600,-0.22455520
-479.08680543,-1.26560300,-0.22528760
-478.98680543,-1.26026200,-0.22486040
-478.88680544,-1.25522600,-0.22522660
-478.78680544,-1.24866500,-0.22504350
-478.68680545,-1.24393400,-0.22608110
-478.58680546,-1.23676300,-0.22614220
-478.48680546,-1.23126900,-0.22644730
-478.38680547,-1.22653900,-0.22656940
-478.28680547,-1.21982500,-0.22675250
-478.18680548,-1.21478900,-0.22760700
-478.08680549,-1.20944900,-0.22717980
-477.98680549,-1.20395500,-0.22730190
-477.88680550,-1.19785200,-0.22711870
-477.78680550,-1.19113700,-0.22772910
-477.68680551,-1.18686500,-0.22791220
-477.58680552,-1.17999800,-0.22779010
-477.48680552,-1.17328400,-0.22840050
-477.38680553,-1.16794300,-0.22870570
-477.28680553,-1.16351800,-0.23041470
-477.18680554,-1.15619400,-0.22888880
-477.08680555,-1.15161600,-0.22919400
-476.98680555,-1.14459700,-0.22931610
-476.88680556,-1.14032400,-0.22992650
-476.78680556,-1.13345700,-0.22962130
-476.68680557,-1.12704900,-0.23041470
-476.58680558,-1.12277600,-0.23078100
-476.48680558,-1.11575700,-0.23120820
-476.38680559,-1.10980600,-0.23065890
-476.28680559,-1.10354900,-0.23078100
-476.18680560,-1.09759800,-0.23108610
-476.08680561,-1.09210500,-0.23151340
-475.98680561,-1.08661200,-0.23151340
-475.88680562,-1.07944000,-0.23175760
-475.78680562,-1.07379400,-0.23169650
-475.68680563,-1.06891100,-0.23236790
-475.58680563,-1.06143400,-0.23255100
-475.48680564,-1.05548300,-0.23230690
-475.38680565,-1.05014200,-0.23236790
-475.28680565,-1.04434300,-0.23206270
-475.18680566,-1.03793500,-0.23297830
-475.08680566,-1.03228900,-0.23267310
-474.98680567,-1.02618500,-0.23310040
-474.88680568,-1.01977600,-0.23364970
-474.78680568,-1.01352000,-0.23346660
-474.68680569,-1.00802600,-0.23346660
-474.58680569,-1.00161700,-0.23438220
-474.48680570,-0.99566640,-0.23389390
-474.38680571,-0.99017300,-0.23438220
-474.28680571,-0.98330630,-0.23444320
-474.18680572,-0.97689750,-0.23529770
-474.08680572,-0.97201450,-0.23511460
-473.98680573,-0.96530040,-0.23480940
-473.88680574,-0.95950190,-0.23529770
-473.78680574,-0.95248270,-0.23578600
-473.68680575,-0.94637900,-0.23511460
-473.58680575,-0.94088570,-0.23578600
-473.48680576,-0.93508710,-0.23572500
-473.38680577,-0.92822050,-0.23590810
-473.28680577,-0.92242190,-0.23627430
-473.18680578,-0.91708120,-0.23590810
-473.08680578,-0.91082490,-0.23609120
-472.98680579,-0.90456860,-0.23633530
-472.88680580,-0.89815970,-0.23633530
-472.78680580,-0.89190350,-0.23694570
-472.68680581,-0.88564710,-0.23706780
-472.58680581,-0.88000120,-0.23749500
-472.48680582,-0.87359230,-0.23731190
-472.38680582,-0.86672570,-0.23780020
-472.28680583,-0.86031680,-0.23755610
-472.18680584,-0.85436560,-0.23780020
-472.08680584,-0.84887240,-0.23767820
-471.98680585,-0.84276860,-0.23761710
-471.88680585,-0.83590200,-0.23743400
-471.78680586,-0.83010350,-0.23841060
-471.68680587,-0.82354200,-0.23841060
-471.58680587,-0.81713310,-0.23853270
-471.48680588,-0.81133460,-0.23865470
-471.38680588,-0.80477310,-0.23834960
-471.28680589,-0.79821160,-0.23895990
-471.18680590,-0.79134490,-0.23859370
-471.08680590,-0.78539380,-0.23883790
-470.98680591,-0.77883240,-0.23908200
-470.88680591,-0.77227090,-0.23957030
-470.78680592,-0.76647230,-0.23950930
-470.68680593,-0.75960570,-0.23944820
-470.58680593,-0.75395980,-0.23957030
-470.48680594,-0.74800870,-0.23950930
-470.38680594,-0.74083680,-0.23944820
-470.28680595,-0.73412280,-0.24030270
-470.18680596,-0.72786650,-0.24024170
-470.08680596,-0.72252570,-0.24024170
-469.98680597,-0.71581160,-0.24005860
-469.88680597,-0.70925020,-0.24030270
-469.78680598,-0.70360420,-0.24018070
-469.68680599,-0.69719540,-0.24036380
-469.58680599,-0.69063390,-0.24048580
-469.48680600,-0.68453010,-0.24066900
-469.38680600,-0.67751090,-0.24054690
-469.28680601,-0.67094950,-0.24097420
-469.18680601,-0.66637160,-0.24036380
-469.08680602,-0.65858940,-0.24103520
-468.98680603,-0.65263830,-0.24097420
-468.88680603,-0.64531390,-0.24018070
-468.78680604,-0.64058350,-0.24097420
-468.68680604,-0.63325910,-0.24018070
-468.58680605,-0.62746050,-0.24060790
-468.48680606,-0.62028870,-0.24030270
-468.38680606,-0.61403240,-0.24140140
-468.28680607,-0.60655540,-0.24097420
-468.18680607,-0.60045160,-0.24109620
-468.08680608,-0.59450050,-0.24073000
-467.98680609,-0.58839680,-0.24140140
-467.88680609,-0.58229320,-0.24127930
-467.78680610,-0.57481610,-0.24054690
-467.68680610,-0.56886500,-0.24182870
-467.58680611,-0.56169320,-0.24134040
-467.48680612,-0.55619980,-0.24109620
-467.38680612,-0.54933320,-0.24158450
-467.28680613,-0.54200880,-0.24127930
-467.18680613,-0.53605760,-0.24097420
-467.08680614,-0.52919100,-0.24066900
-466.98680615,-0.52247690,-0.24127930
-466.88680615,-0.51698360,-0.24085210
-466.78680616,-0.50920130,-0.24182870
-466.68680616,-0.50263980,-0.24097420
-466.58680617,-0.49699390,-0.24146240
-466.48680618,-0.48982210,-0.24109620
-466.38680618,-0.48448130,-0.24134040
-466.28680619,-0.47685170,-0.24121830
-466.18680619,-0.47105320,-0.24182870
-466.08680620,-0.46464430,-0.24140140
-465.98680620,-0.45869320,-0.24188970
-465.88680621,-0.45197910,-0.24170660
-465.78680622,-0.44419690,-0.24164560
-465.68680622,-0.43855100,-0.24176760
-465.58680623,-0.43122660,-0.24250010
-465.48680623,-0.42466510,-0.24188970
-465.38680624,-0.41840880,-0.24176760
-465.28680625,-0.41138950,-0.24201180
-465.18680625,-0.40406510,-0.24201180
-465.08680626,-0.39811400,-0.24182870
-464.98680626,-0.39109470,-0.24182870
-464.88680627,-0.38499100,-0.24182870
-464.78680628,-0.37842950,-0.24176760
-464.68680628,-0.37263100,-0.24182870
-464.58680629,-0.36606950,-0.24164560
-464.48680629,-0.35935540,-0.24127930
-464.38680630,-0.35187840,-0.24170660
-464.28680631,-0.34623250,-0.24207280
-464.18680631,-0.33921320,-0.24140140
-464.08680632,-0.33280440,-0.24170660
-463.98680632,-0.32624290,-0.24188970
-463.88680633,-0.31937620,-0.24121830
-463.78680634,-0.31296730,-0.24140140
-463.68680634,-0.30640580,-0.24146240
-463.58680635,-0.30045470,-0.24140140
-463.48680635,-0.29343550,-0.24121830
-463.38680636,-0.28748430,-0.24140140
-463.28680637,-0.27985470,-0.24140140
-463.18680637,-0.27359840,-0.24140140
-463.08680638,-0.26627400,-0.24170660
-462.98680638,-0.26093330,-0.24127930
-462.88680639,-0.25437180,-0.24127930
-462.78680639,-0.24689470,-0.24054690
-462.68680640,-0.24033330,-0.24066900
-462.58680641,-0.23438220,-0.24060790
-462.48680641,-0.22690510,-0.24085210
-462.38680642,-0.22125920,-0.24103520
-462.28680642,-0.21408730,-0.24091310
-462.18680643,-0.20752590,-0.24005860
-462.08680644,-0.20065920,-0.24103520
-461.98680644,-0.19394510,-0.24060790
-461.88680645,-0.18738370,-0.24073000
-461.78680645,-0.18097480,-0.24103520
-461.68680646,-0.17426070,-0.24054690
-461.58680647,-0.16769920,-0.24085210
-461.48680647,-0.16052740,-0.24091310
-461.38680648,-0.15472880,-0.24011960
-461.28680648,-0.14709920,-0.23981440
-461.18680649,-0.14023250,-0.24005860
-461.08680650,-0.13443400,-0.23944820
-460.98680650,-0.12619400,-0.23969240
-460.88680651,-0.12115850,-0.24018070
-460.78680651,-0.11368150,-0.23969240
-460.68680652,-0.10773030,-0.24005860
-460.58680653,-0.10132150,-0.23993650
-460.48680653,-0.09460738,-0.23975340
-460.38680654,-0.08804590,-0.23969240
-460.28680654,-0.08133183,-0.23957030
-460.18680655,-0.07370220,-0.23950930
-460.08680656,-0.06836146,-0.23938720
-459.98680656,-0.06164739,-0.23895990
-459.88680657,-0.05447554,-0.23908200
-459.78680657,-0.04791406,-0.23914300
-459.68680658,-0.03982665,-0.23914300
-459.58680658,-0.03418073,-0.23865470
-459.48680659,-0.02807703,-0.23877680
-459.38680660,-0.02121036,-0.23908200
-459.28680660,-0.01342814,-0.23798330
-459.18680661,-0.00778222,-0.23792230
-459.08680661,-0.00061037,-0.23822750
-458.98680662,0.00579852,-0.23792230
-458.88680663,0.01205481,-0.23761710
-458.78680663,0.01983703,-0.23767820
-458.68680664,0.02624592,-0.23694570
-458.58680664,0.03234962,-0.23718990
-458.48680665,0.03875851,-0.23718990
-458.38680666,0.04577776,-0.23786130
-458.28680666,0.05203406,-0.23682360
-458.18680667,0.05829035,-0.23706780
-458.08680667,0.06515702,-0.23731190
-457.98680668,0.07232887,-0.23676260
-457.88680669,0.07919553,-0.23725090
-457.78680669,0.08545183,-0.23688470
-457.68680670,0.09155553,-0.23590810
-457.58680670,0.09887997,-0.23633530
-457.48680671,0.10498370,-0.23578600
-457.38680672,0.11124000,-0.23615220
-457.28680672,0.11810660,-0.23541980
-457.18680673,0.12558370,-0.23517560
-457.08680673,0.13214520,-0.23523670
-456.98680674,0.13748590,-0.23523670
-456.88680675,0.14465770,-0.23493150
-456.78680675,0.15274510,-0.23487040
-456.68680676,0.15854370,-0.23572500
-456.58680676,0.16525770,-0.23487040
-456.48680677,0.17212440,-0.23560290
-456.38680677,0.17838070,-0.23462630
-456.28680678,0.18616290,-0.23389390
-456.18680679,0.19058810,-0.23487040
-456.08680679,0.19928590,-0.23383280
-455.98680680,0.20462660,-0.23413800
-455.88680680,0.21057770,-0.23413800
-455.78680681,0.21881770,-0.23371080
-455.68680682,0.22415850,-0.23407700
-455.58680682,0.23194070,-0.23310040
-455.48680683,0.23834960,-0.23371080
-455.38680683,0.24445330,-0.23371080
-455.28680684,0.25055700,-0.23297830
-455.18680685,0.25757620,-0.23267310
-455.08680685,0.26429030,-0.23249000
-454.98680686,0.27130960,-0.23194070
-454.88680686,0.27756580,-0.23206270
-454.78680687,0.28412730,-0.23120820
-454.68680688,0.29038360,-0.23139130
-454.58680688,0.29725030,-0.23206270
-454.48680689,0.30396430,-0.23053680
-454.38680689,0.30991550,-0.23096410
-454.28680690,0.31434070,-0.23114720
-454.18680691,0.32090210,-0.23096410
-454.08680691,0.32914210,-0.23059790
-453.98680692,0.33539840,-0.23023160
-453.88680692,0.34287550,-0.23023160
-453.78680693,0.34943690,-0.23004850
-453.68680694,0.35691400,-0.22968230
-453.58680694,0.36255990,-0.22943820
-453.48680695,0.36927400,-0.22882780
-453.38680695,0.37476730,-0.22882780
-453.28680696,0.38315990,-0.22876670
-453.18680696,0.38911100,-0.22882780
-453.08680697,0.39628290,-0.22840050
-452.98680698,0.40208140,-0.22870570
-452.88680698,0.40849020,-0.22803430
-452.78680699,0.41520430,-0.22766810
-452.68680699,0.42237620,-0.22754600
-452.58680700,0.42802210,-0.22711870
-452.48680701,0.43488880,-0.22663040
-452.38680701,0.43992430,-0.22626420
-452.28680702,0.44785910,-0.22650840
-452.18680702,0.45518360,-0.22614220
-452.08680703,0.46098210,-0.22571490
-451.98680704,0.46723840,-0.22571490
-451.88680704,0.47441020,-0.22559280
-451.78680705,0.48036130,-0.22504350
-451.68680705,0.48799100,-0.22431100
-451.58680706,0.49363690,-0.22467730
-451.48680707,0.50080870,-0.22394480
-451.38680707,0.50706510,-0.22449420
-451.28680708,0.51271090,-0.22382270
-451.18680708,0.51896730,-0.22345650
-451.08680709,0.52705470,-0.22309030
-450.98680710,0.53239540,-0.22321240
-450.88680710,0.53926210,-0.22309030
-450.78680711,0.54567090,-0.22260200
-450.68680711,0.55192730,-0.22278510
-450.58680712,0.56016730,-0.22186960
-450.48680713,0.56550800,-0.22156440
-450.38680713,0.57176430,-0.22199160
-450.28680714,0.57817320,-0.22107610
-450.18680714,0.58427690,-0.22101510
-450.08680715,0.59160130,-0.22064880
-449.98680715,0.59831540,-0.22052680
-449.88680716,0.60380870,-0.22089300
-449.78680717,0.61067540,-0.21955020
-449.68680717,0.61601610,-0.21979430
-449.58680718,0.62379830,-0.21930600
-449.48680718,0.62959680,-0.21918390
-449.38680719,0.63646350,-0.21826840
-449.28680720,0.64180430,-0.21918390
-449.18680720,0.64867090,-0.21820730
-449.08680721,0.65553760,-0.21784110
-448.98680721,0.66240420,-0.21808530
-448.88680722,0.66805020,-0.21814630
-448.78680723,0.67567980,-0.21704760
-448.68680723,0.68041010,-0.21771900
-448.58680724,0.68773460,-0.21692560
-448.48680724,0.69322790,-0.21613210
-448.38680725,0.70055240,-0.21582690
-448.28680726,0.70711390,-0.21558280
-448.18680726,0.71184420,-0.21515550
-448.08680727,0.71901610,-0.21576590
-447.98680727,0.72603540,-0.21485030
-447.88680728,0.73259680,-0.21478930
-447.78680729,0.73900570,-0.21423990
-447.68680729,0.74449900,-0.21393470
-447.58680730,0.75090790,-0.21393470
-447.48680730,0.75701170,-0.21320230
-447.38680731,0.76250490,-0.21320230
-447.28680732,0.76906650,-0.21308020
-447.18680732,0.77593310,-0.21253090
-447.08680733,0.78234200,-0.21216470
-446.98680733,0.78829310,-0.21131020
-446.88680734,0.79470200,-0.21192050
-446.78680734,0.80080570,-0.21155430
-446.68680735,0.80706200,-0.21100500
-446.58680736,0.81316570,-0.21002840
-446.48680736,0.82079530,-0.20978420
-446.38680737,0.82598350,-0.20972320
-446.28680737,0.83223970,-0.20905180
-446.18680738,0.83880120,-0.20923490
-446.08680739,0.84521010,-0.20911280
-445.98680739,0.85207680,-0.20807520
-445.88680740,0.85604420,-0.20984530
-445.78680740,0.86397900,-0.20734280
-445.68680741,0.86962490,-0.20813620
-445.58680742,0.87603380,-0.20697650
-445.48680742,0.88152710,-0.20703760
-445.38680743,0.88808860,-0.20709860
-445.28680743,0.89434490,-0.20618300
-445.18680744,0.90151680,-0.20551160
-445.08680745,0.90731530,-0.20581680
-444.98680745,0.91387680,-0.20514540
-444.88680746,0.91937010,-0.20447400
-444.78680746,0.92501600,-0.20404680
-444.68680747,0.93142490,-0.20361950
-444.58680748,0.93798640,-0.20380260
-444.48680748,0.94439530,-0.20380260
-444.38680749,0.94973600,-0.20331430
-444.28680749,0.95614490,-0.20294810
-444.18680750,0.96194340,-0.20209360
-444.08680751,0.96774190,-0.20160530
-443.98680751,0.97399820,-0.20142220
-443.88680752,0.98071230,-0.20142220
-443.78680752,0.98574790,-0.20075080
-443.68680753,0.99230930,-0.20093390
-443.58680753,0.99887080,-0.19959110
-443.48680754,1.00497400,-0.19995730
-443.38680755,1.01001000,-0.19953000
-443.28680755,1.01748700,-0.19922480
-443.18680756,1.02328600,-0.19867550
-443.08680756,1.02801600,-0.19837030
-442.98680757,1.03442500,-0.19794300
-442.88680758,1.04083400,-0.19800410
-442.78680758,1.04632700,-0.19702750
-442.68680759,1.05273600,-0.19684440
-442.58680759,1.05899200,-0.19617300
-442.48680760,1.06418000,-0.19586780
-442.38680761,1.07043700,-0.19592880
-442.28680761,1.07654000,-0.19537950
-442.18680762,1.08233900,-0.19495220
-442.08680762,1.08859500,-0.19446390
-441.98680763,1.09454600,-0.19452500
-441.88680764,1.09912400,-0.19397560
-441.78680764,1.10629600,-0.19342630
-441.68680765,1.11148400,-0.19244970
-441.58680765,1.11789300,-0.19226660
-441.48680766,1.12369200,-0.19171730
-441.38680767,1.12888000,-0.19141210
-441.28680767,1.13528900,-0.19055760
-441.18680768,1.14093400,-0.19074070
-441.08680768,1.14703800,-0.19043550
-440.98680769,1.15298900,-0.19031340
-440.88680770,1.15863500,-0.18951990
-440.78680770,1.16489100,-0.18884850
-440.68680771,1.17008000,-0.18817710
-440.58680771,1.17526800,-0.18817710
-440.48680772,1.18213500,-0.18793300
-440.38680772,1.18793300,-0.18738370
-440.28680773,1.19388400,-0.18726160
-440.18680774,1.19937700,-0.18640710
-440.08680774,1.20532900,-0.18585770
-439.98680775,1.21097400,-0.18549150
-439.88680775,1.21723100,-0.18500320
-439.78680776,1.22364000,-0.18494220
-439.68680777,1.22821700,-0.18427080
-439.58680777,1.23371100,-0.18396560
-439.48680778,1.23996700,-0.18347730
-439.38680778,1.24515500,-0.18280590
-439.28680779,1.25171700,-0.18305000
-439.18680780,1.25858300,-0.18243970
-439.08680780,1.26239800,-0.18207340
-438.98680781,1.26850200,-0.18085270
-438.88680781,1.27475800,-0.18036440
-438.78680782,1.27948900,-0.18073060
-438.68680783,1.28559200,-0.17975400
-438.58680783,1.29093300,-0.17914370
-438.48680784,1.29688400,-0.17914370
-438.38680784,1.30237700,-0.17859430
-438.28680785,1.30756600,-0.17767880
-438.18680786,1.31366900,-0.17761770
-438.08680786,1.31916300,-0.17694630
-437.98680787,1.32572400,-0.17700730
-437.88680787,1.32953900,-0.17645800
-437.78680788,1.33594800,-0.17548140
-437.68680789,1.34083100,-0.17511520
-437.58680789,1.34647700,-0.17468800
-437.48680790,1.35227500,-0.17444380
-437.38680790,1.35837900,-0.17377240
-437.28680791,1.36265100,-0.17316200
-437.18680791,1.36875500,-0.17303990
-437.08680792,1.37424900,-0.17285680
-436.98680793,1.37943700,-0.17157510
-436.88680793,1.38493000,-0.17249060
-436.78680794,1.39088100,-0.17126990
-436.68680794,1.39469600,-0.17047640
-436.58680795,1.40141000,-0.17017120
-436.48680796,1.40598800,-0.16986600
-436.38680796,1.41346500,-0.16815700
-436.28680797,1.41819500,-0.16925570
-436.18680797,1.42231500,-0.16834010
-436.08680798,1.42735100,-0.16754660
-435.98680799,1.43299700,-0.16699730
-435.88680799,1.43772700,-0.16711940
-435.78680800,1.44428800,-0.16620380
-435.68680800,1.44978200,-0.16559340
-435.58680801,1.45451200,-0.16541030
-435.48680802,1.46031100,-0.16473890
-435.38680802,1.46580400,-0.16364020
-435.28680803,1.47068700,-0.16388440
-435.18680803,1.47587500,-0.16394540
-435.08680804,1.48136800,-0.16278570
-434.98680805,1.48609900,-0.16174810
-434.88680805,1.49174500,-0.16168710
-434.78680806,1.49647500,-0.16168710
-434.68680806,1.50090000,-0.16095460
-434.58680807,1.50624100,-0.16028320
-434.48680808,1.51127700,-0.15942870
-434.38680808,1.51783800,-0.15955080
-434.28680809,1.52195800,-0.15839110
-434.18680809,1.52790900,-0.15808590
-434.08680810,1.53202900,-0.15833000
-433.98680810,1.53767500,-0.15723140
-433.88680811,1.54225300,-0.15710930
-433.78680812,1.54789900,-0.15631580
-433.68680812,1.55339200,-0.15607170
-433.58680813,1.55797000,-0.15558340
-433.48680813,1.56315800,-0.15472880
-433.38680814,1.56895700,-0.15417950
-433.28680815,1.57353400,-0.15375230
-433.18680815,1.57780700,-0.15350810
-433.08680816,1.58299500,-0.15308090
-432.98680816,1.58833600,-0.15234840
-432.88680817,1.59382900,-0.15222630
-432.78680818,1.59764400,-0.15137180
-432.68680818,1.60374800,-0.15112770
-432.58680819,1.60741000,-0.15021210
-432.48680819,1.61244500,-0.14996800
-432.38680820,1.61839700,-0.14929660
-432.28680821,1.62373700,-0.14880830
-432.18680821,1.62709400,-0.14856410
-432.08680822,1.63197700,-0.14734340
-431.98680822,1.63716500,-0.14716020
-431.88680823,1.64235400,-0.14691610
-431.78680824,1.64754200,-0.14642780
-431.68680824,1.65212000,-0.14600050
-431.58680825,1.65685000,-0.14490190
-431.48680825,1.66173300,-0.14423050
-431.38680826,1.66676800,-0.14465770
-431.28680826,1.67088800,-0.14392530
-431.18680827,1.67638200,-0.14331490
-431.08680828,1.68034900,-0.14203310
-430.98680828,1.68584300,-0.14282660
-430.88680829,1.69026800,-0.14166690
-430.78680829,1.69576100,-0.14014100
-430.68680830,1.69972800,-0.14087340
-430.58680831,1.70552700,-0.13971370
-430.48680831,1.70980000,-0.13916440
-430.38680832,1.71361400,-0.13873710
-430.28680832,1.71880200,-0.13837090
-430.18680833,1.72307500,-0.13763850
-430.08680834,1.72765300,-0.13696710
-429.98680834,1.73268800,-0.13580740
-429.88680835,1.73680800,-0.13611260
-429.78680835,1.74245400,-0.13574630
-429.68680836,1.74611700,-0.13440350
-429.58680837,1.75069400,-0.13434250
-429.48680837,1.75481400,-0.13318280
-429.38680838,1.76000200,-0.13330480
-429.28680838,1.76427500,-0.13269450
-429.18680839,1.76885300,-0.13214520
-429.08680840,1.77236200,-0.13165690
-428.98680840,1.77785600,-0.13037510
-428.88680841,1.78182300,-0.13061920
-428.78680841,1.78731700,-0.13000880
-428.68680842,1.79128400,-0.12970370
-428.58680843,1.79631900,-0.12866600
-428.48680843,1.80028700,-0.12811670
-428.38680844,1.80425400,-0.12744530
-428.28680844,1.80913700,-0.12707910
-428.18680845,1.81325700,-0.12567520
-428.08680845,1.81783500,-0.12512590
-427.98680846,1.82195500,-0.12561420
-427.88680847,1.82577000,-0.12427140
-427.78680847,1.83050000,-0.12414930
-427.68680848,1.83446800,-0.12311170
-427.58680848,1.83904500,-0.12286750
-427.48680849,1.84362300,-0.12237920
-427.38680850,1.84743800,-0.12182990
-427.28680850,1.85140500,-0.12097540
-427.18680851,1.85659300,-0.12036500
-427.08680851,1.85964500,-0.12005980
-426.98680852,1.86361300,-0.11969360
