Time,Channel A,Channel B
(ms),(V),(V)

-1.00012114,1.19541000,1.04037600
-1.00002114,1.19968300,1.04129200
-0.99992114,1.20395500,1.04098600
-0.99982114,1.20883800,1.04129200
-0.99972114,1.21204300,1.04052900
-0.99962114,1.21692600,1.04052900
-0.99952114,1.21936700,1.04052900
-0.99942114,1.22394500,1.04098600
-0.99932114,1.22791200,1.04144400
-0.99922114,1.23264300,1.04037600
-0.99912114,1.23600000,1.04098600
-0.99902114,1.23981400,1.03991800
-0.99892114,1.24515500,1.04037600
-0.99882114,1.24820700,1.04022300
-0.99872114,1.25309000,1.04022300
-0.99862114,1.25721000,1.04037600
-0.99852114,1.26026200,1.04037600
-0.99842114,1.26392400,1.04083400
-0.99832114,1.26865400,1.03976600
-0.99822114,1.27216400,1.03915500
-0.99812114,1.27704700,1.04022300
-0.99802114,1.28025200,1.03991800
-0.99792114,1.28360900,1.03976600
-0.99782114,1.28772900,1.03900300
-0.99772114,1.29245900,1.03900300
-0.99762114,1.29612100,1.03991800
-0.99752114,1.30069900,1.03885000
-0.99742114,1.30375100,1.03869700
-0.99732114,1.30741300,1.03824000
-0.99722114,1.31153300,1.03824000
-0.99712114,1.31626300,1.03976600
-0.99702114,1.31946800,1.03885000
-0.99692114,1.32404600,1.03885000
-0.99682114,1.32831800,1.03808700
-0.99672114,1.33076000,1.03854500
-0.99662114,1.33640600,1.03762900
-0.99652114,1.33976300,1.03778200
-0.99642114,1.34250900,1.03793500
-0.99632114,1.34800300,1.03671400
-0.99622114,1.35151200,1.03747700
-0.99612114,1.35624300,1.03854500
-0.99602114,1.35914200,1.03778200
-0.99592114,1.36402500,1.03686600
-0.99582114,1.36707700,1.03671400
-0.99572114,1.37241700,1.03640900
-0.99562114,1.37501100,1.03656100
-0.99552115,1.37913100,1.03625600
-0.99542115,1.38401400,1.03640900
-0.99532115,1.38691400,1.03640900
-0.99522115,1.39133900,1.03640900
-0.99512115,1.39500100,1.03610300
-0.99502115,1.39866300,1.03503500
-0.99492115,1.40263100,1.03549300
-0.99482115,1.40598800,1.03579800
-0.99472115,1.40934500,1.03534000
-0.99462115,1.41361700,1.03488300
-0.99452115,1.41819500,1.03427200
-0.99442115,1.42201000,1.03427200
-0.99432115,1.42506200,1.03427200
-0.99422115,1.42887700,1.03442500
-0.99412115,1.43208100,1.03335700
-0.99402115,1.43665900,1.03381500
-0.99392115,1.43986300,1.03259400
-0.99382115,1.44459400,1.03320400
-0.99372115,1.44749300,1.03320400
-0.99362115,1.45161300,1.03213600
-0.99352115,1.45558000,1.03259400
-0.99342115,1.45985300,1.03289900
-0.99332115,1.46321000,1.03076300
-0.99322115,1.46733000,1.03213600
-0.99312115,1.47099200,1.03106800
-0.99302115,1.47434900,1.03152600
-0.99292115,1.47816400,1.03152600
-0.99282115,1.48213100,1.03137300
-0.99272115,1.48594600,1.03030500
-0.99262115,1.48915100,1.03137300
-0.99252115,1.49205000,1.03061000
-0.99242115,1.49632300,1.03045700
-0.99232115,1.50044300,1.02954200
-0.99222115,1.50395200,1.02938900
-0.99212115,1.50837700,1.02908400
-0.99202115,1.51142900,1.02923700
-0.99192115,1.51493900,1.02893100
-0.99182115,1.51860100,1.02862600
-0.99172115,1.52226300,1.02832100
-0.99162115,1.52562000,1.02664300
-0.99152115,1.52943500,1.02679500
-0.99142115,1.53355500,1.02694800
-0.99132115,1.53584400,1.02633800
-0.99122115,1.54087900,1.02618500
-0.99112115,1.54423700,1.02542200
-0.99102115,1.54805100,1.02572700
-0.99092115,1.55217100,1.02450600
-0.99082115,1.55583400,1.02465900
-0.99072115,1.55812300,1.02374300
-0.99062115,1.56270000,1.02465900
-0.99052115,1.56651500,1.02328600
-0.99042115,1.57048200,1.02450600
-0.99032115,1.57384000,1.02252300
-0.99022115,1.57643400,1.02343800
-0.99012115,1.58085900,1.02298000
-0.99002115,1.58330000,1.02130200
-0.98992115,1.58726800,1.02176000
-0.98982115,1.59154000,1.02130200
-0.98972115,1.59444000,1.02084400
-0.98962115,1.59901700,1.02084400
-0.98952115,1.60237400,1.02038600
-0.98942115,1.60451100,1.01977600
-0.98932115,1.60954600,1.01840300
-0.98922115,1.61198800,1.01825000
-0.98912115,1.61610800,1.01855500
-0.98902115,1.61885400,1.01779200
-0.98892115,1.62221100,1.01764000
-0.98882115,1.62617900,1.01779200
-0.98872115,1.63121400,1.01718200
-0.98862115,1.63411400,1.01657200
-0.98852115,1.63686000,1.01550300
-0.98842115,1.63991200,1.01580900
-0.98832115,1.64433700,1.01519800
-0.98822115,1.64693100,1.01504600
-0.98812115,1.65135700,1.01413000
-0.98802115,1.65425600,1.01382500
-0.98792115,1.65791800,1.01367200
-0.98782115,1.66081700,1.01275700
-0.98772115,1.66432700,1.01306200
-0.98762115,1.66798900,1.01184100
-0.98752115,1.67195700,1.01153600
-0.98742115,1.67485600,1.01138300
-0.98732115,1.67867100,1.01138300
-0.98722115,1.68141700,1.01031500
-0.98712115,1.68553700,1.00940000
-0.98702115,1.68874200,1.00940000
-0.98692115,1.69179400,1.00863700
-0.98682115,1.69530300,1.00833200
-0.98672115,1.69820200,1.00787400
-0.98662115,1.70232200,1.00772100
-0.98652115,1.70613700,1.00680600
-0.98642115,1.70934200,1.00665300
-0.98632115,1.71330900,1.00650000
-0.98622115,1.71544500,1.00512700
-0.98612115,1.71849700,1.00451700
-0.98602115,1.72246500,1.00390600
-0.98592115,1.72536400,1.00405900
-0.98582115,1.72902600,1.00314300
-0.98572115,1.73314600,1.00283800
-0.98562115,1.73619800,1.00238000
-0.98552115,1.73848700,1.00131200
-0.98542115,1.74184400,1.00192300
-0.98532115,1.74489600,1.00100700
-0.98522115,1.74855800,1.00116000
-0.98512115,1.75145700,0.99932860
-0.98502115,1.75542500,0.99856560
-0.98492115,1.75908700,0.99841300
-0.98482115,1.76259600,0.99734490
-0.98472115,1.76503800,0.99688710
-0.98462115,1.76870000,0.99719230
-0.98452115,1.77251500,0.99673450
-0.98442115,1.77617700,0.99612410
-0.98432115,1.77907600,0.99566640
-0.98422115,1.78121300,0.99475080
-0.98412115,1.78548500,0.99414040
-0.98402115,1.78838500,0.99414040
-0.98392115,1.79204700,0.99215670
-0.98382115,1.79509900,0.99215670
-0.98372115,1.79723500,0.99108860
-0.98362115,1.80120200,0.99139380
-0.98352115,1.80547500,0.99047820
-0.98342115,1.80745900,0.98941010
-0.98332115,1.81096800,0.98864710
-0.98322115,1.81356200,0.98864710
-0.98312115,1.81737700,0.98788420
-0.98302115,1.82012400,0.98788420
-0.98292115,1.82470200,0.98742640
-0.98282115,1.82653300,0.98635820
-0.98272115,1.83034800,0.98574790
-0.98262115,1.83309400,0.98452710
-0.98252115,1.83645100,0.98300120
-0.98242115,1.83980800,0.98391680
-0.98232115,1.84209700,0.98315380
-0.98222115,1.84575900,0.98223820
-0.98212115,1.84896400,0.98147520
-0.98202115,1.85216800,0.98071230
-0.98192115,1.85491500,0.97964420
-0.98182115,1.85842500,0.97949150
-0.98172115,1.86223900,0.97842340
-0.98162115,1.86376500,0.97842340
-0.98152115,1.86712200,0.97689750
-0.98142115,1.87063200,0.97689750
-0.98132115,1.87383700,0.97613450
-0.98122115,1.87643100,0.97598200
-0.98112115,1.87963500,0.97552410
-0.98102115,1.88238200,0.97491380
-0.98092115,1.88528100,0.97369310
-0.98082115,1.88848500,0.97338780
-0.98072115,1.89107900,0.97201450
-0.98062115,1.89428400,0.97064120
-0.98052115,1.89733600,0.97018340
-0.98042115,1.90099800,0.96957300
-0.98032115,1.90343900,0.96972560
-0.98022115,1.90572800,0.96911530
-0.98012115,1.90969600,0.96789460
-0.98002115,1.91229000,0.96713160
-0.97992115,1.91564700,0.96621600
-0.97982115,1.91763100,0.96530040
-0.97972115,1.92068200,0.96514790
-0.97962115,1.92373400,0.96514790
-0.97952115,1.92663300,0.96346930
-0.97942115,1.92999100,0.96301160
-0.97932115,1.93227900,0.96255380
-0.97922115,1.93487300,0.96179080
-0.97912115,1.93868800,0.96026490
-0.97902115,1.94158800,0.95950190
-0.97892115,1.94479200,0.95934930
-0.97882115,1.94769100,0.95965450
-0.97872115,1.94982800,0.95828120
-0.97862115,1.95318500,0.95721300
-0.97852115,1.95532100,0.95568710
-0.97842115,1.95837300,0.95538190
-0.97832115,1.96157700,0.95400860
-0.97822115,1.96478200,0.95446640
-0.97812115,1.96752800,0.95278790
-0.97802115,1.96951200,0.95217750
-0.97792115,1.97241100,0.95187230
-0.97782115,1.97653100,0.94988860
-0.97772115,1.97866800,0.94973600
-0.97762115,1.98034600,0.94912560
-0.97752115,1.98461900,0.94790490
-0.97742115,1.98645000,0.94653160
-0.97732115,1.98965400,0.94683680
-0.97722115,1.99194300,0.94470050
-0.97712115,1.99560500,0.94531080
-0.97702115,1.99758900,0.94363230
-0.97692115,2.00109900,0.94225900
-0.97682115,2.00369300,0.94210640
-0.97672115,2.00537100,0.94058050
-0.97662115,2.00842300,0.93997010
-0.97652115,2.01101700,0.94042780
-0.97642115,2.01422200,0.93905450
-0.97632115,2.01666300,0.93768120
-0.97622115,2.01925700,0.93737600
-0.97612115,2.02261400,0.93630780
-0.97602115,2.02536100,0.93417160
-0.97592115,2.02765000,0.93340860
-0.97582115,2.02993900,0.93371380
-0.97572115,2.03299000,0.93218790
-0.97562115,2.03451600,0.93157750
-0.97552115,2.03787400,0.93127230
-0.97542115,2.04092500,0.93005160
-0.97532115,2.04351900,0.92944120
-0.97522115,2.04565600,0.92791530
-0.97512115,2.04870700,0.92822050
-0.97502115,2.05069100,0.92684720
-0.97492115,2.05374300,0.92562640
-0.97482115,2.05633700,0.92532120
-0.97472115,2.05862600,0.92440560
-0.97462115,2.06091500,0.92333750
-0.97452115,2.06396700,0.92150640
-0.97442115,2.06701900,0.92120120
-0.97432115,2.06976500,0.92120120
-0.97422115,2.07266400,0.92028560
-0.97412115,2.07373300,0.91830190
-0.97402115,2.07709000,0.91784420
-0.97392115,2.08014200,0.91647080
-0.97382115,2.08197300,0.91616560
-0.97372115,2.08380400,0.91479230
-0.97362115,2.08716100,0.91402940
-0.97352115,2.08990800,0.91357160
-0.97342115,2.09189100,0.91158790
-0.97332115,2.09463800,0.91128270
-0.97322115,2.09784200,0.91036710
-0.97312115,2.10013100,0.90884120
-0.97302115,2.10242000,0.90807830
-0.97292115,2.10501400,0.90639970
-0.97282115,2.10715100,0.90655230
-0.97272115,2.10882900,0.90487380
-0.97262115,2.11111800,0.90426340
-0.97252115,2.11523800,0.90319530
-0.97242115,2.11706900,0.90273750
-0.97232115,2.11935800,0.90105900
-0.97222115,2.12179900,0.89953310
-0.97212115,2.12393600,0.89953310
-0.97202115,2.12622500,0.89831230
-0.97192115,2.12851300,0.89754940
-0.97182115,2.13095500,0.89648120
-0.97172115,2.13431200,0.89571830
-0.97162115,2.13583800,0.89465010
-0.97152115,2.13721100,0.89373460
-0.97142115,2.14011000,0.89266640
-0.97132115,2.14194200,0.89175090
-0.97122115,2.14529900,0.89007230
-0.97112115,2.14774000,0.88976720
-0.97102115,2.14941900,0.88854640
-0.97092115,2.15262300,0.88732560
-0.97082115,2.15445400,0.88641010
-0.97072115,2.15659000,0.88518940
-0.97062115,2.15918400,0.88412120
-0.97052115,2.16116800,0.88305310
-0.97042115,2.16376200,0.88183230
-0.97032115,2.16635600,0.88183230
-0.97022115,2.16773000,0.88076420
-0.97012115,2.16910300,0.87847530
-0.97002115,2.17291800,0.87817010
-0.96992115,2.17490100,0.87725450
-0.96982115,2.17673300,0.87542340
-0.96972115,2.17963200,0.87466050
-0.96962115,2.18207300,0.87420270
-0.96952115,2.18375200,0.87221900
-0.96942115,2.18634600,0.87206640
-0.96932115,2.18817700,0.87084570
-0.96922115,2.19061900,0.86962490
-0.96912115,2.19306000,0.86794640
-0.96902115,2.19336500,0.86703090
-0.96892115,2.19687500,0.86703090
-0.96882115,2.19855300,0.86474200
-0.96872115,2.20099500,0.86413160
-0.96862115,2.20267300,0.86260570
-0.96852115,2.20481000,0.86107980
-0.96842115,2.20664100,0.86062200
-0.96832115,2.20862500,0.85863830
-0.96822115,2.21060800,0.85711230
-0.96812115,2.21350700,0.85695980
-0.96802115,2.21564400,0.85528120
-0.96792115,2.21701700,0.85436560
-0.96782115,2.22006900,0.85421310
-0.96772115,2.22144200,0.85329750
-0.96762115,2.22342600,0.85207680
-0.96752115,2.22647800,0.84978790
-0.96742115,2.22830900,0.84871980
-0.96732115,2.23014000,0.84765160
-0.96722115,2.23212400,0.84704120
-0.96712115,2.23441300,0.84505750
-0.96702115,2.23563300,0.84444710
-0.96692115,2.23838000,0.84368420
-0.96682115,2.23899100,0.84200570
-0.96672115,2.24265300,0.84154790
-0.96662115,2.24494100,0.83971680
-0.96652115,2.24539900,0.83880120
-0.96642115,2.24814600,0.83803830
-0.96632115,2.25058700,0.83697020
-0.96622115,2.25104500,0.83529160
-0.96612115,2.25333400,0.83391830
-0.96602115,2.25501300,0.83315530
-0.96592115,2.25669100,0.83193460
-0.96582115,2.25898000,0.83071380
-0.96572115,2.26142100,0.82979830
-0.96562115,2.26371000,0.82888270
-0.96552115,2.26447300,0.82537310
-0.96542115,2.26691500,0.82613610
-0.96532115,2.26828800,0.82506790
-0.96522115,2.27057700,0.82323680
-0.96512115,2.27179800,0.82201610
-0.96502115,2.27408700,0.82110050
-0.96492115,2.27683300,0.81942200
-0.96482115,2.27698600,0.81759090
-0.96472115,2.27942800,0.81789610
-0.96462115,2.28141100,0.81621750
-0.96452115,2.28278400,0.81545460
-0.96442115,2.28507300,0.81362350
-0.96432115,2.28705700,0.81270790
-0.96422115,2.28797300,0.81163980
-0.96412115,2.29056700,0.81041900
-0.96402115,2.29194000,0.80874050
-0.96392115,2.29438200,0.80675680
-0.96382115,2.29636500,0.80568860
-0.96372115,2.29804400,0.80568860
-0.96362115,2.29911200,0.80339970
-0.96352115,2.30002700,0.80233160
-0.96342115,2.30292700,0.80080570
-0.96332115,2.30460500,0.79958490
-0.96322115,2.30552100,0.79882200
-0.96312115,2.30796200,0.79790650
-0.96302115,2.30918300,0.79668570
-0.96292115,2.31086200,0.79515980
-0.96282115,2.31269300,0.79439680
-0.96272115,2.31391300,0.79256570
-0.96262115,2.31650800,0.79165010
-0.96252115,2.31727100,0.79042940
-0.96242115,2.31986500,0.79012420
-0.96232115,2.32108500,0.78814050
-0.96222115,2.32291600,0.78676720
-0.96212115,2.32383200,0.78508870
-0.96202115,2.32581600,0.78371530
-0.96192115,2.32718900,0.78218940
-0.96182115,2.32886700,0.78142640
-0.96172115,2.32932500,0.78051090
-0.96162115,2.33237700,0.77944270
-0.96152115,2.33359800,0.77715380
-0.96142115,2.33466600,0.77608570
-0.96132115,2.33588700,0.77547530
-0.96122115,2.33802300,0.77379680
-0.96112115,2.33924400,0.77135530
-0.96102115,2.34107500,0.77028720
-0.96092115,2.34244800,0.76937160
-0.96082115,2.34244800,0.76876130
-0.96072115,2.34534700,0.76586200
-0.96062115,2.34611000,0.76570940
-0.96052115,2.34763600,0.76509900
-0.96042115,2.34946800,0.76219980
-0.96032115,2.35068800,0.76097910
-0.96022115,2.35206200,0.75975830
-0.96012115,2.35343500,0.75899540
-0.96002115,2.35557100,0.75746940
-0.95992115,2.35679200,0.75563830
-0.95982115,2.35725000,0.75502790
-0.95972115,2.35862300,0.75289160
-0.95962115,2.36121700,0.75182350
-0.95952115,2.36198000,0.74983980
-0.95942115,2.36320100,0.74953460
-0.95932115,2.36411600,0.74800870
-0.95922115,2.36671000,0.74633010
-0.95912115,2.36716800,0.74449900
-0.95902115,2.36869400,0.74282050
-0.95892115,2.37006700,0.74251530
-0.95882115,2.37128800,0.74129460
-0.95872115,2.37342500,0.73915830
-0.95862115,2.37418700,0.73809020
-0.95852115,2.37510300,0.73641160
-0.95842115,2.37632400,0.73519090
-0.95832115,2.37815500,0.73427530
-0.95822115,2.37907100,0.73183390
-0.95812115,2.38074900,0.73168130
-0.95802115,2.38258000,0.72954500
-0.95792115,2.38319000,0.72786650
-0.95782115,2.38456400,0.72679830
-0.95772115,2.38578400,0.72527240
-0.95762115,2.38715800,0.72374650
-0.95752115,2.38731100,0.72298350
-0.95742115,2.38975200,0.72145750
-0.95732115,2.39082000,0.71962640
-0.95722115,2.39234600,0.71855830
-0.95712115,2.39249800,0.71718500
-0.95702115,2.39463500,0.71596430
-0.95692115,2.39448200,0.71504870
-0.95682115,2.39646600,0.71306500
-0.95672115,2.39753400,0.71169160
-0.95662115,2.39845000,0.70940270
-0.95652115,2.39936500,0.70818200
-0.95642115,2.40119600,0.70757160
-0.95632115,2.40150100,0.70589310
-0.95622115,2.40348500,0.70436720
-0.95612115,2.40409600,0.70314650
-0.95602115,2.40607900,0.70238350
-0.95592115,2.40653700,0.70070500
-0.95582115,2.40760500,0.69765310
-0.95572115,2.40852100,0.69673760
-0.95562115,2.40928400,0.69582200
-0.95552115,2.41111500,0.69444870
-0.95542115,2.41142000,0.69246500
-0.95532115,2.41218300,0.69078650
-0.95522115,2.41309900,0.68987090
-0.95512115,2.41569300,0.68849750
-0.95502115,2.41584500,0.68666650
-0.95492115,2.41706600,0.68559830
-0.95482115,2.41737100,0.68361460
-0.95472115,2.41813400,0.68254640
-0.95462115,2.41996500,0.68071540
-0.95452115,2.42057600,0.67934200
-0.95442115,2.42179600,0.67690060
-0.95432115,2.42317000,0.67644270
-0.95422115,2.42362700,0.67445900
-0.95412115,2.42362700,0.67262790
-0.95402115,2.42484800,0.67186500
-0.95392115,2.42576400,0.66972870
-0.95382115,2.42729000,0.66789760
-0.95372115,2.42774700,0.66698200
-0.95362115,2.42790000,0.66545610
-0.95352115,2.42896800,0.66423540
-0.95342115,2.43034100,0.66225170
-0.95332115,2.43217300,0.66042050
-0.95322115,2.43171500,0.65904720
-0.95312115,2.43263000,0.65706350
-0.95302115,2.43339300,0.65660570
-0.95292115,2.43415600,0.65523240
-0.95282115,2.43568200,0.65309610
-0.95272115,2.43598700,0.65202800
-0.95262115,2.43751300,0.65034940
-0.95252115,2.43781900,0.64790800
-0.95242115,2.43797100,0.64699240
-0.95232115,2.43888700,0.64516130
-0.95222115,2.43949700,0.64378800
-0.95212115,2.44148100,0.64241460
-0.95202115,2.44209100,0.64043090
-0.95192115,2.44270200,0.63905760
-0.95182115,2.44224400,0.63753160
-0.95172115,2.44392200,0.63692130
-0.95162115,2.44468500,0.63493760
-0.95152115,2.44529600,0.63356420
-0.95142115,2.44682100,0.63127540
-0.95132115,2.44590600,0.62929170
-0.95122115,2.44727900,0.62791830
-0.95112115,2.44804200,0.62639240
-0.95102115,2.44819500,0.62440870
-0.95092115,2.44941600,0.62425610
-0.95082115,2.44987300,0.62135680
-0.95072115,2.45063600,0.62059390
-0.95062115,2.45201000,0.61906800
-0.95052115,2.45185700,0.61693170
-0.95042115,2.45201000,0.61571090
-0.95032115,2.45292500,0.61342200
-0.95022115,2.45307800,0.61265910
-0.95012115,2.45460400,0.61067540
-0.95002115,2.45536700,0.60991240
-0.94992115,2.45582400,0.60808130
-0.94982115,2.45536700,0.60640280
-0.94972115,2.45643500,0.60457170
-0.94962115,2.45735000,0.60258800
-0.94952115,2.45765600,0.60167240
-0.94942115,2.45841900,0.59953610
-0.94932115,2.45948700,0.59801020
-0.94922115,2.45857100,0.59541610
-0.94912115,2.46009700,0.59495840
-0.94902115,2.45979200,0.59312730
-0.94892115,2.45963900,0.59236430
-0.94882115,2.46101300,0.59038050
-0.94872115,2.46131800,0.58900730
-0.94862115,2.46284400,0.58748130
-0.94852115,2.46299600,0.58595540
-0.94842115,2.46253800,0.58381910
-0.94832115,2.46208100,0.58183540
-0.94822115,2.46314900,0.58061460
-0.94812115,2.46437000,0.57832570
-0.94802115,2.46314900,0.57725760
-0.94792115,2.46513300,0.57542650
-0.94782115,2.46406400,0.57405320
-0.94772115,2.46498000,0.57130650
-0.94762115,2.46543800,0.57130650
-0.94752115,2.46574300,0.57023840
-0.94742115,2.46665900,0.56688130
-0.94732115,2.46696400,0.56566060
-0.94722115,2.46665900,0.56413470
-0.94712115,2.46757400,0.56154060
-0.94702115,2.46681100,0.56047240
-0.94692115,2.46833700,0.55925170
-0.94682115,2.46803200,0.55742060
-0.94672115,2.46772700,0.55558940
-0.94662115,2.46910000,0.55375840
-0.94652115,2.46818400,0.55284280
-0.94642115,2.46940500,0.55024870
-0.94632115,2.46910000,0.54872280
-0.94622115,2.46925300,0.54750200
-0.94612115,2.47001600,0.54582350
-0.94602115,2.47062600,0.54383980
-0.94592115,2.46925300,0.54261910
-0.94582115,2.47016800,0.54017760
-0.94572115,2.47032100,0.53880430
-0.94562115,2.47077800,0.53682060
-0.94552115,2.47184700,0.53529470
-0.94542115,2.47123600,0.53468430
-0.94532115,2.47154100,0.53239540
-0.94522115,2.47077800,0.53132720
-0.94512115,2.47184700,0.52827540
-0.94502115,2.47199900,0.52766500
-0.94492115,2.47184700,0.52568130
-0.94482115,2.47261000,0.52430800
-0.94472115,2.47154100,0.52186650
-0.94462115,2.47138900,0.51988280
-0.94452115,2.47123600,0.51866210
-0.94442115,2.47215200,0.51698360
-0.94432115,2.47215200,0.51591540
-0.94422115,2.47215200,0.51301620
-0.94412115,2.47261000,0.51164280
-0.94402115,2.47261000,0.51011690
-0.94392115,2.47215200,0.50813320
-0.94382115,2.47215200,0.50737020
-0.94372115,2.47261000,0.50538650
-0.94362115,2.47261000,0.50355540
-0.94352115,2.47230400,0.50172430
-0.94342115,2.47276200,0.50065610
-0.94332115,2.47291500,0.49806210
-0.94322115,2.47352500,0.49638350
-0.94312115,2.47291500,0.49394210
-0.94302115,2.47322000,0.49363690
-0.94292115,2.47276200,0.49195840
-0.94282115,2.47215200,0.48966950
-0.94272115,2.47215200,0.48768580
-0.94262115,2.47199900,0.48646500
-0.94252115,2.47306800,0.48387100
-0.94242115,2.47184700,0.48249760
-0.94232115,2.47169400,0.48112430
-0.94222115,2.47215200,0.47853020
-0.94212115,2.47276200,0.47669910
-0.94202115,2.47230400,0.47532580
-0.94192115,2.47306800,0.47441020
-0.94182115,2.47199900,0.47242650
-0.94172115,2.47199900,0.47044280
-0.94162115,2.47123600,0.46815390
-0.94152115,2.47077800,0.46632280
